Data from Bird_3_Reflection_1.txt Node
Date: Fri Jan 31 09:39:11 MST 2020
User: Lab User
Spectrometer: USB4J01344
Trigger mode: 0
Integration Time (sec): 1.047400E-1
Scans to average: 20
Electric dark correction enabled: false
Nonlinearity correction enabled: false
Boxcar width: 5
XAxis mode: Wavelengths
Number of Pixels in Spectrum: 3648
>>>>>Begin Spectral Data<<<<<
177.498	-180.68
177.717	-182.13
177.936	-249.13
178.155	-210.75
178.374	-246.13
178.593	-290.36
178.812	-588.26
179.031	-970.14
179.251	-1082.42
179.47	-1607.78
179.689	-1857.69
179.908	9856.67
180.127	463.79
180.346	320.68
180.565	228.14
180.784	186.08
181.003	160.28
181.222	147.34
181.441	126.72
181.66	116.68
181.879	111.07
182.098	103.04
182.316	96.23
182.535	98.06
182.754	100.02
182.973	102.07
183.192	105.25
183.411	102.77
183.63	101.35
183.849	100.88
184.067	103.58
184.286	104.54
184.505	102.48
184.724	104.44
184.943	101.68
185.161	100.02
185.38	99.91
185.599	96.4
185.818	92.58
186.036	94.04
186.255	95.84
186.474	90.9
186.693	88.55
186.911	87.97
187.13	85.01
187.349	86.48
187.567	86.46
187.786	84.79
188.004	83.93
188.223	89.71
188.442	91.09
188.66	87.17
188.879	87.07
189.097	87.79
189.316	91.68
189.535	89.49
189.753	92.44
189.972	89.76
190.19	92.95
190.409	96.14
190.627	95.44
190.846	92.4
191.064	96.24
191.283	93.98
191.501	94.53
191.719	95.32
191.938	97.39
192.156	91.9
192.375	89.25
192.593	85.17
192.811	84.09
193.03	83.35
193.248	84.43
193.467	80.06
193.685	80.8
193.903	75.7
194.121	76.95
194.34	76.83
194.558	80.9
194.776	83.66
194.995	84.47
195.213	83.08
195.431	79.57
195.649	79.96
195.868	81.1
196.086	78.76
196.304	81.35
196.522	78.7
196.74	73.99
196.958	68.23
197.177	73.33
197.395	76.19
197.613	77.27
197.831	80.65
198.049	80.52
198.267	82.34
198.485	82.38
198.703	79.07
198.921	80.07
199.139	86.97
199.358	93.88
199.576	88.62
199.794	84.83
200.012	83.46
200.23	86.17
200.448	85.23
200.666	83.65
200.883	85.29
201.101	92.36
201.319	92.86
201.537	90.74
201.755	86.92
201.973	85.55
202.191	88.29
202.409	87.63
202.627	80
202.845	80.09
203.062	84.37
203.28	85.22
203.498	83.47
203.716	83.7
203.934	81.36
204.151	77.04
204.369	81.09
204.587	77.93
204.805	77.75
205.022	84.29
205.24	81.67
205.458	78.7
205.676	81.24
205.893	80.56
206.111	77.33
206.329	80.19
206.546	80.91
206.764	77.71
206.982	77.65
207.199	81.07
207.417	76.44
207.634	78.23
207.852	79.95
208.07	76.01
208.287	76.92
208.505	77.17
208.722	73.57
208.94	77.71
209.157	80.8
209.375	81.06
209.592	80.74
209.81	84.3
210.027	83.14
210.245	83.13
210.462	81.06
210.68	77.75
210.897	78.3
211.115	80.66
211.332	74.38
211.549	69.71
211.767	73.68
211.984	69.61
212.201	65.86
212.419	67.73
212.636	67.34
212.854	71.65
213.071	72.14
213.288	72.62
213.505	73.46
213.723	75.8
213.94	80.43
214.157	75.85
214.374	75.91
214.592	77.12
214.809	78.23
215.026	75.39
215.243	74.65
215.461	76.49
215.678	75.03
215.895	74.82
216.112	75.12
216.329	70.85
216.546	72.97
216.763	77.01
216.981	78.75
217.198	74.79
217.415	77.9
217.632	76.69
217.849	78.1
218.066	80.63
218.283	79.27
218.5	75.01
218.717	78.17
218.934	75.84
219.151	69.88
219.368	67.86
219.585	67.39
219.802	66.6
220.019	65.81
220.236	63.31
220.453	60.8
220.67	63.78
220.887	64.9
221.103	59.9
221.32	61.96
221.537	67.68
221.754	67.96
221.971	67.92
222.188	67.36
222.405	67.55
222.621	67.2
222.838	67.49
223.055	63.46
223.272	63.76
223.488	64.32
223.705	62.69
223.922	61.71
224.139	63.7
224.355	65.87
224.572	63.78
224.789	66.04
225.005	62.98
225.222	62.17
225.439	61.51
225.655	63.89
225.872	64.98
226.089	63.2
226.305	60.42
226.522	56.56
226.738	52.37
226.955	49.24
227.172	43.63
227.388	40.6
227.605	38.51
227.821	36.3
228.038	31.84
228.254	30.93
228.471	31.01
228.687	30.39
228.904	29.33
229.12	29.72
229.337	29.01
229.553	29.51
229.77	30.07
229.986	29.69
230.202	29.4
230.419	31.74
230.635	32.5
230.851	31.21
231.068	30.58
231.284	30.99
231.501	30.94
231.717	32.6
231.933	33.82
232.149	34.66
232.366	34.44
232.582	33.96
232.798	33.44
233.015	32.28
233.231	31.5
233.447	31.3
233.663	29.78
233.879	29.64
234.096	28.76
234.312	27.81
234.528	26.24
234.744	26.26
234.96	26.02
235.176	25.48
235.393	24.79
235.609	25.32
235.825	24.16
236.041	25.1
236.257	24.46
236.473	24.13
236.689	23.63
236.905	23.45
237.121	23.38
237.337	22.89
237.553	22.4
237.769	22.5
237.985	22.99
238.201	23.58
238.417	23.2
238.633	22.29
238.849	22.18
239.065	21.2
239.281	21
239.497	19.75
239.713	19.61
239.928	19.16
240.144	18.11
240.36	16.99
240.576	16.07
240.792	15.24
241.008	14.96
241.223	14.26
241.439	13.97
241.655	13.44
241.871	13.12
242.087	12.84
242.302	12.65
242.518	12.67
242.734	12.58
242.95	12.68
243.165	12.78
243.381	12.82
243.597	12.92
243.812	13.16
244.028	13.54
244.244	13.83
244.459	13.98
244.675	13.86
244.89	13.91
245.106	13.63
245.322	13.2
245.537	12.66
245.753	12.16
245.968	11.74
246.184	11.41
246.399	11.12
246.615	10.98
246.83	10.91
247.046	10.91
247.261	10.85
247.477	10.74
247.692	10.76
247.908	10.74
248.123	10.72
248.339	10.82
248.554	10.94
248.769	11.18
248.985	11.47
249.2	11.58
249.416	11.62
249.631	11.79
249.846	11.98
250.062	12.1
250.277	12.33
250.492	12.53
250.707	12.46
250.923	12.14
251.138	11.97
251.353	11.67
251.569	11.59
251.784	11.66
251.999	11.6
252.214	11.7
252.429	11.65
252.645	11.72
252.86	11.79
253.075	11.96
253.29	12.3
253.505	12.53
253.72	12.84
253.935	13.02
254.151	13.37
254.366	13.57
254.581	13.76
254.796	13.94
255.011	14.02
255.226	13.88
255.441	13.89
255.656	13.58
255.871	13.4
256.086	13.21
256.301	13.13
256.516	12.82
256.731	12.7
256.946	12.47
257.161	12.36
257.376	11.96
257.591	12.02
257.806	11.86
258.02	11.77
258.235	11.34
258.45	11.12
258.665	10.84
258.88	10.59
259.095	10.3
259.31	10.15
259.524	10.01
259.739	9.96
259.954	9.84
260.169	9.78
260.383	9.81
260.598	9.9
260.813	9.85
261.028	9.9
261.242	9.93
261.457	10.1
261.672	10.31
261.886	10.44
262.101	10.64
262.316	10.58
262.53	10.7
262.745	10.58
262.96	10.62
263.174	10.76
263.389	10.86
263.603	10.96
263.818	10.94
264.033	10.74
264.247	10.87
264.462	10.82
264.676	11.08
264.891	11.25
265.105	11.23
265.32	11.05
265.534	10.96
265.749	10.83
265.963	10.71
266.178	10.73
266.392	10.77
266.606	10.64
266.821	10.6
267.035	10.55
267.25	10.3
267.464	10.34
267.678	10.43
267.893	10.39
268.107	10.37
268.321	10.44
268.536	10.35
268.75	10.37
268.964	10.41
269.179	10.44
269.393	10.04
269.607	10.07
269.821	10.08
270.036	9.93
270.25	9.94
270.464	9.87
270.678	9.78
270.892	9.74
271.106	9.71
271.321	9.67
271.535	9.69
271.749	9.89
271.963	9.89
272.177	9.78
272.391	9.77
272.605	9.7
272.819	9.75
273.033	9.77
273.248	9.84
273.462	9.81
273.676	9.87
273.89	9.83
274.104	9.94
274.318	9.95
274.532	10.04
274.746	10.08
274.96	10.14
275.173	10.21
275.387	10.22
275.601	10.22
275.815	10.35
276.029	10.29
276.243	10.3
276.457	10.34
276.671	10.39
276.885	10.36
277.098	10.36
277.312	10.33
277.526	10.24
277.74	10.26
277.954	10.15
278.167	9.98
278.381	10.06
278.595	10.05
278.809	10.07
279.022	10
279.236	9.93
279.45	9.97
279.663	10.06
279.877	10.01
280.091	9.99
280.304	10.03
280.518	10.08
280.732	9.97
280.945	9.99
281.159	9.94
281.373	9.93
281.586	9.88
281.8	9.84
282.013	9.83
282.227	9.82
282.44	9.86
282.654	9.8
282.867	9.74
283.081	9.81
283.294	9.75
283.508	9.68
283.721	9.63
283.935	9.67
284.148	9.6
284.362	9.5
284.575	9.57
284.789	9.46
285.002	9.46
285.215	9.46
285.429	9.35
285.642	9.3
285.855	9.26
286.069	9.27
286.282	9.35
286.495	9.41
286.709	9.43
286.922	9.39
287.135	9.45
287.348	9.46
287.562	9.5
287.775	9.57
287.988	9.64
288.201	9.67
288.415	9.7
288.628	9.63
288.841	9.57
289.054	9.55
289.267	9.51
289.48	9.49
289.694	9.51
289.907	9.47
290.12	9.43
290.333	9.42
290.546	9.44
290.759	9.44
290.972	9.41
291.185	9.39
291.398	9.44
291.611	9.49
291.824	9.55
292.037	9.5
292.25	9.56
292.463	9.61
292.676	9.62
292.889	9.65
293.102	9.62
293.315	9.69
293.528	9.75
293.741	9.73
293.954	9.72
294.166	9.71
294.379	9.82
294.592	9.86
294.805	9.87
295.018	9.89
295.231	9.83
295.443	9.89
295.656	9.82
295.869	9.85
296.082	9.83
296.295	9.83
296.507	9.76
296.72	9.72
296.933	9.61
297.145	9.59
297.358	9.56
297.571	9.61
297.783	9.6
297.996	9.63
298.209	9.61
298.421	9.6
298.634	9.59
298.847	9.66
299.059	9.71
299.272	9.83
299.484	9.9
299.697	10
299.91	9.97
300.122	9.98
300.335	10.04
300.547	10.03
300.76	10.11
300.972	10.13
301.185	10.11
301.397	10.11
301.609	10.1
301.822	10.08
302.034	10.09
302.247	10.2
302.459	10.24
302.672	10.27
302.884	10.37
303.096	10.42
303.309	10.47
303.521	10.51
303.733	10.54
303.946	10.53
304.158	10.54
304.37	10.53
304.583	10.51
304.795	10.51
305.007	10.52
305.219	10.54
305.432	10.54
305.644	10.57
305.856	10.66
306.068	10.67
306.28	10.74
306.493	10.85
306.705	10.91
306.917	10.93
307.129	10.98
307.341	10.95
307.553	10.87
307.765	10.79
307.977	10.85
308.189	10.74
308.402	10.72
308.614	10.73
308.826	10.66
309.038	10.69
309.25	10.67
309.462	10.58
309.674	10.6
309.886	10.62
310.098	10.63
310.31	10.56
310.522	10.65
310.733	10.68
310.945	10.62
311.157	10.62
311.369	10.6
311.581	10.66
311.793	10.72
312.005	10.76
312.217	10.75
312.428	10.86
312.64	10.89
312.852	10.91
313.064	10.9
313.276	11.02
313.487	11.08
313.699	11.16
313.911	11.11
314.123	11.14
314.334	11.16
314.546	11.27
314.758	11.25
314.97	11.26
315.181	11.28
315.393	11.33
315.604	11.35
315.816	11.45
316.028	11.43
316.239	11.46
316.451	11.5
316.663	11.49
316.874	11.46
317.086	11.43
317.297	11.47
317.509	11.43
317.72	11.54
317.932	11.52
318.143	11.47
318.355	11.52
318.566	11.58
318.778	11.61
318.989	11.64
319.201	11.64
319.412	11.61
319.624	11.7
319.835	11.76
320.046	11.76
320.258	11.76
320.469	11.72
320.68	11.72
320.892	11.71
321.103	11.82
321.314	11.86
321.526	11.96
321.737	12.07
321.948	12.01
322.16	11.94
322.371	11.85
322.582	11.8
322.793	11.82
323.005	11.82
323.216	11.79
323.427	11.66
323.638	11.64
323.849	11.58
324.06	11.51
324.272	11.51
324.483	11.51
324.694	11.57
324.905	11.64
325.116	11.63
325.327	11.59
325.538	11.59
325.749	11.62
325.96	11.65
326.171	11.7
326.382	11.75
326.593	11.76
326.804	11.84
327.015	11.86
327.226	11.87
327.437	11.89
327.648	11.95
327.859	12.02
328.07	12.11
328.281	12.11
328.492	12.07
328.703	12.18
328.914	12.18
329.125	12.18
329.335	12.17
329.546	12.16
329.757	12.17
329.968	12.22
330.179	12.22
330.39	12.19
330.6	12.19
330.811	12.27
331.022	12.21
331.233	12.3
331.443	12.31
331.654	12.26
331.865	12.26
332.075	12.31
332.286	12.21
332.497	12.29
332.707	12.24
332.918	12.2
333.129	12.19
333.339	12.13
333.55	12.1
333.761	12.09
333.971	12.22
334.182	12.27
334.392	12.28
334.603	12.34
334.813	12.27
335.024	12.35
335.234	12.4
335.445	12.41
335.655	12.46
335.866	12.45
336.076	12.44
336.287	12.36
336.497	12.34
336.708	12.35
336.918	12.34
337.128	12.41
337.339	12.38
337.549	12.41
337.759	12.46
337.97	12.46
338.18	12.48
338.39	12.53
338.601	12.61
338.811	12.66
339.021	12.59
339.232	12.63
339.442	12.58
339.652	12.7
339.862	12.7
340.073	12.7
340.283	12.75
340.493	12.71
340.703	12.69
340.913	12.63
341.124	12.52
341.334	12.59
341.544	12.65
341.754	12.68
341.964	12.6
342.174	12.64
342.384	12.7
342.594	12.72
342.804	12.82
343.014	12.91
343.224	12.93
343.435	12.93
343.645	12.87
343.855	12.81
344.065	12.77
344.274	12.82
344.484	12.84
344.694	12.84
344.904	12.75
345.114	12.68
345.324	12.59
345.534	12.55
345.744	12.6
345.954	12.62
346.164	12.57
346.374	12.55
346.583	12.47
346.793	12.49
347.003	12.42
347.213	12.46
347.423	12.48
347.632	12.49
347.842	12.49
348.052	12.51
348.262	12.62
348.471	12.63
348.681	12.65
348.891	12.67
349.1	12.66
349.31	12.7
349.52	12.76
349.729	12.75
349.939	12.78
350.149	12.83
350.358	12.82
350.568	12.76
350.778	12.84
350.987	12.86
351.197	12.94
351.406	11.37
351.616	11.38
351.825	11.34
352.035	11.34
352.244	11.32
352.454	11.35
352.663	11.39
352.873	11.42
353.082	11.44
353.292	11.44
353.501	11.41
353.711	12.9
353.92	12.91
354.129	12.94
354.339	12.97
354.548	13.04
354.757	13.06
354.967	13.06
355.176	13.05
355.385	13.03
355.595	13.07
355.804	13.06
356.013	13
356.223	12.93
356.432	12.87
356.641	12.84
356.85	12.78
357.059	12.72
357.269	12.7
357.478	12.7
357.687	12.7
357.896	12.74
358.105	12.75
358.314	12.87
358.524	12.91
358.733	12.95
358.942	12.98
359.151	13
359.36	13.09
359.569	13.14
359.778	13.13
359.987	13.12
360.196	13.04
360.405	13.02
360.614	12.94
360.823	12.89
361.032	12.87
361.241	12.85
361.45	12.82
361.659	12.79
361.868	12.77
362.077	12.81
362.286	12.86
362.495	12.89
362.704	12.91
362.912	12.95
363.121	13.01
363.33	13.04
363.539	13.06
363.748	13.14
363.957	13.16
364.165	13.23
364.374	13.23
364.583	13.23
364.792	13.2
365	13.23
365.209	13.3
365.418	13.28
365.626	13.33
365.835	13.36
366.044	13.36
366.253	13.39
366.461	13.37
366.67	13.33
366.878	13.35
367.087	13.4
367.296	13.42
367.504	13.39
367.713	13.46
367.921	13.47
368.13	13.52
368.338	13.51
368.547	13.51
368.755	13.53
368.964	13.61
369.172	13.62
369.381	13.64
369.589	13.64
369.798	13.68
370.006	13.67
370.215	13.63
370.423	13.54
370.632	13.59
370.84	13.57
371.048	13.55
371.257	13.54
371.465	13.53
371.673	13.57
371.882	13.54
372.09	13.55
372.298	13.6
372.507	13.67
372.715	13.73
372.923	13.74
373.131	13.77
373.34	13.79
373.548	13.77
373.756	13.82
373.964	13.78
374.172	13.85
374.381	13.87
374.589	13.86
374.797	13.83
375.005	13.88
375.213	13.83
375.421	13.84
375.629	13.85
375.837	13.82
376.045	13.72
376.254	13.7
376.462	13.66
376.67	13.58
376.878	13.55
377.086	13.51
377.294	13.46
377.502	13.46
377.71	13.49
377.918	13.49
378.126	13.53
378.333	13.6
378.541	13.67
378.749	13.74
378.957	13.77
379.165	13.8
379.373	13.84
379.581	13.89
379.789	13.97
379.996	13.98
380.204	14.01
380.412	14.01
380.62	14.04
380.828	13.99
381.035	13.97
381.243	13.99
381.451	13.95
381.659	13.95
381.866	13.95
382.074	13.91
382.282	13.9
382.489	13.89
382.697	13.89
382.905	13.88
383.112	13.91
383.32	13.87
383.528	13.87
383.735	13.85
383.943	13.87
384.15	13.85
384.358	13.83
384.565	13.83
384.773	13.84
384.981	13.86
385.188	13.88
385.396	13.9
385.603	13.92
385.811	13.91
386.018	13.92
386.225	13.93
386.433	14
386.64	14.03
386.848	14.02
387.055	13.97
387.263	13.96
387.47	13.96
387.677	13.92
387.885	13.96
388.092	14
388.299	14.02
388.507	14.01
388.714	14.02
388.921	14.04
389.128	14.1
389.336	14.12
389.543	14.21
389.75	14.21
389.957	14.23
390.165	14.22
390.372	14.22
390.579	14.23
390.786	14.23
390.993	14.19
391.2	14.16
391.408	14.17
391.615	14.19
391.822	14.12
392.029	14.13
392.236	14.13
392.443	14.12
392.65	14.12
392.857	14.12
393.064	14.1
393.271	14.09
393.478	14.11
393.685	14.09
393.892	14.08
394.099	14.07
394.306	14.06
394.513	14.06
394.72	14.07
394.927	14.09
395.134	14.12
395.341	14.15
395.547	14.21
395.754	14.2
395.961	14.23
396.168	14.26
396.375	14.34
396.582	14.35
396.788	14.38
396.995	14.39
397.202	14.37
397.409	14.39
397.616	14.4
397.822	14.44
398.029	14.43
398.236	14.47
398.442	14.46
398.649	14.45
398.856	14.47
399.062	14.47
399.269	14.45
399.476	14.45
399.682	14.47
399.889	14.49
400.096	14.47
400.302	14.52
400.509	14.52
400.715	14.53
400.922	14.56
401.128	14.59
401.335	14.58
401.541	14.62
401.748	14.65
401.954	14.67
402.161	14.7
402.367	14.69
402.574	14.65
402.78	14.62
402.986	14.62
403.193	14.62
403.399	14.62
403.606	14.65
403.812	14.65
404.018	14.65
404.225	14.64
404.431	14.61
404.637	14.62
404.844	14.64
405.05	14.68
405.256	14.68
405.462	14.66
405.669	14.66
405.875	14.67
406.081	14.69
406.287	14.75
406.494	14.76
406.7	14.75
406.906	14.77
407.112	14.8
407.318	14.83
407.524	14.86
407.73	14.88
407.937	14.91
408.143	14.93
408.349	14.94
408.555	14.91
408.761	14.94
408.967	14.97
409.173	14.98
409.379	14.99
409.585	14.97
409.791	14.98
409.997	14.99
410.203	15.01
410.409	15.01
410.615	15.03
410.821	15.02
411.027	15.03
411.233	15.09
411.438	15.11
411.644	15.12
411.85	15.12
412.056	15.11
412.262	15.13
412.468	15.15
412.673	15.16
412.879	15.16
413.085	15.19
413.291	15.19
413.497	15.2
413.702	15.21
413.908	15.19
414.114	15.2
414.319	15.21
414.525	15.21
414.731	15.19
414.937	15.23
415.142	15.21
415.348	15.23
415.553	15.23
415.759	15.22
415.965	15.2
416.17	15.23
416.376	15.23
416.581	15.24
416.787	15.22
416.992	15.21
417.198	15.18
417.404	15.17
417.609	15.18
417.815	15.17
418.02	15.18
418.225	15.18
418.431	15.17
418.636	15.17
418.842	15.19
419.047	15.19
419.253	15.22
419.458	15.23
419.663	15.22
419.869	15.2
420.074	15.22
420.279	15.21
420.485	15.22
420.69	15.22
420.895	15.24
421.101	15.24
421.306	15.27
421.511	15.26
421.716	15.29
421.922	15.31
422.127	15.34
422.332	15.34
422.537	15.36
422.742	15.37
422.947	15.39
423.153	15.39
423.358	15.4
423.563	15.41
423.768	15.42
423.973	15.41
424.178	15.43
424.383	15.42
424.588	15.44
424.793	15.45
424.998	15.47
425.203	15.5
425.408	15.52
425.613	15.53
425.818	15.54
426.023	15.58
426.228	15.61
426.433	15.65
426.638	15.71
426.843	15.72
427.048	15.75
427.253	15.78
427.458	15.8
427.663	15.82
427.867	15.86
428.072	15.9
428.277	15.89
428.482	15.9
428.687	15.92
428.892	15.94
429.096	15.96
429.301	15.98
429.506	15.99
429.711	16.01
429.915	16.04
430.12	16.05
430.325	16.04
430.529	16.06
430.734	16.08
430.939	16.08
431.143	16.05
431.348	16.04
431.553	16.01
431.757	16.01
431.962	16.01
432.166	16
432.371	16.01
432.575	16.03
432.78	16.03
432.984	16.02
433.189	16.01
433.394	16.03
433.598	16.04
433.802	16.08
434.007	16.1
434.211	16.1
434.416	16.11
434.62	16.13
434.825	16.15
435.029	16.18
435.233	16.22
435.438	16.25
435.642	16.28
435.846	16.34
436.051	16.36
436.255	16.38
436.459	16.42
436.664	16.45
436.868	16.46
437.072	16.47
437.276	16.48
437.481	16.51
437.685	16.52
437.889	16.5
438.093	16.48
438.298	16.49
438.502	16.48
438.706	16.47
438.91	16.49
439.114	16.49
439.318	16.5
439.522	16.5
439.726	16.48
439.931	16.47
440.135	16.49
440.339	16.51
440.543	16.52
440.747	16.55
440.951	16.56
441.155	16.57
441.359	16.58
441.563	16.61
441.767	16.63
441.971	16.66
442.175	16.69
442.378	16.73
442.582	16.74
442.786	16.79
442.99	16.81
443.194	16.83
443.398	16.83
443.602	16.86
443.806	16.88
444.009	16.88
444.213	16.85
444.417	16.84
444.621	16.83
444.825	16.83
445.028	16.81
445.232	16.81
445.436	16.81
445.639	16.82
445.843	16.81
446.047	16.8
446.251	16.82
446.454	16.86
446.658	16.86
446.861	16.87
447.065	16.89
447.269	16.91
447.472	16.94
447.676	16.97
447.879	17.01
448.083	17.05
448.287	17.08
448.49	17.1
448.694	17.11
448.897	17.15
449.101	17.2
449.304	17.22
449.507	17.26
449.711	17.27
449.914	17.27
450.118	17.27
450.321	17.28
450.525	17.31
450.728	17.33
450.931	17.37
451.135	17.41
451.338	17.41
451.541	17.42
451.745	17.44
451.948	17.44
452.151	17.46
452.355	17.47
452.558	17.49
452.761	17.52
452.964	17.52
453.168	17.53
453.371	17.54
453.574	17.56
453.777	17.6
453.98	17.61
454.183	17.65
454.387	17.69
454.59	17.72
454.793	17.74
454.996	17.74
455.199	17.76
455.402	17.77
455.605	17.81
455.808	17.82
456.011	17.83
456.214	17.85
456.417	17.86
456.62	17.87
456.823	17.87
457.026	17.88
457.229	17.92
457.432	17.96
457.635	18
457.838	18
458.041	17.98
458.244	17.98
458.447	17.97
458.65	18
458.852	18
459.055	17.99
459.258	17.99
459.461	17.98
459.664	17.98
459.867	17.96
460.069	17.97
460.272	18
460.475	18.03
460.678	18.08
460.88	18.08
461.083	18.11
461.286	18.14
461.488	18.18
461.691	18.21
461.894	18.24
462.096	18.29
462.299	18.31
462.502	18.34
462.704	18.36
462.907	18.36
463.109	18.39
463.312	18.41
463.514	18.46
463.717	18.48
463.92	18.48
464.122	18.48
464.325	18.49
464.527	18.54
464.729	18.56
464.932	18.58
465.134	18.6
465.337	18.59
465.539	18.61
465.742	18.59
465.944	18.61
466.146	18.65
466.349	18.69
466.551	18.69
466.753	18.7
466.956	18.72
467.158	18.72
467.36	18.73
467.563	18.77
467.765	18.79
467.967	18.81
468.169	18.81
468.372	18.82
468.574	18.83
468.776	18.87
468.978	18.87
469.18	18.88
469.383	18.92
469.585	18.96
469.787	18.98
469.989	18.99
470.191	19.03
470.393	19.05
470.595	19.08
470.797	19.09
470.999	19.1
471.201	19.14
471.403	19.16
471.606	19.18
471.808	19.22
472.009	19.22
472.211	19.24
472.413	19.26
472.615	19.3
472.817	19.33
473.019	19.37
473.221	19.39
473.423	19.41
473.625	19.42
473.827	19.43
474.029	19.44
474.231	19.47
474.432	19.47
474.634	19.48
474.836	19.47
475.038	19.48
475.24	19.5
475.441	19.5
475.643	19.51
475.845	19.52
476.046	19.53
476.248	19.53
476.45	19.53
476.652	19.57
476.853	19.59
477.055	19.61
477.257	19.63
477.458	19.64
477.66	19.68
477.861	19.69
478.063	19.71
478.265	19.72
478.466	19.75
478.668	19.77
478.869	19.78
479.071	19.8
479.272	19.82
479.474	19.84
479.675	19.83
479.877	19.84
480.078	19.87
480.28	19.87
480.481	19.87
480.682	19.87
480.884	19.88
481.085	19.87
481.287	19.88
481.488	19.87
481.689	19.87
481.891	19.89
482.092	19.87
482.293	19.86
482.495	19.84
482.696	19.83
482.897	19.84
483.098	19.86
483.3	19.89
483.501	19.93
483.702	19.98
483.903	20.01
484.104	20.03
484.306	20.07
484.507	20.09
484.708	20.12
484.909	20.16
485.11	20.19
485.311	20.22
485.512	20.24
485.713	20.25
485.914	20.24
486.116	20.25
486.317	20.25
486.518	20.26
486.719	20.28
486.92	20.3
487.121	20.32
487.322	20.34
487.523	20.35
487.723	20.37
487.924	20.39
488.125	20.42
488.326	20.45
488.527	20.48
488.728	20.51
488.929	20.54
489.13	20.58
489.331	20.59
489.531	20.64
489.732	20.67
489.933	20.7
490.134	20.72
490.335	20.71
490.535	20.72
490.736	20.71
490.937	20.73
491.137	20.74
491.338	20.76
491.539	20.78
491.74	20.78
491.94	20.8
492.141	20.83
492.341	20.85
492.542	20.9
492.743	20.93
492.943	20.97
493.144	20.99
493.344	21.03
493.545	21.06
493.746	21.12
493.946	21.17
494.147	21.19
494.347	21.23
494.548	21.28
494.748	21.32
494.949	21.35
495.149	21.36
495.349	21.38
495.55	21.39
495.75	21.42
495.951	21.43
496.151	21.48
496.351	21.5
496.552	21.5
496.752	21.51
496.952	21.53
497.153	21.55
497.353	21.58
497.553	21.63
497.754	21.64
497.954	21.66
498.154	21.69
498.354	21.7
498.554	21.74
498.755	21.77
498.955	21.81
499.155	21.84
499.355	21.87
499.555	21.92
499.755	21.96
499.956	22.01
500.156	22.04
500.356	22.05
500.556	22.05
500.756	22.08
500.956	22.11
501.156	22.15
501.356	22.17
501.556	22.19
501.756	22.2
501.956	22.22
502.156	22.23
502.356	22.25
502.556	22.27
502.756	22.3
502.956	22.29
503.156	22.3
503.356	22.31
503.555	22.32
503.755	22.35
503.955	22.37
504.155	22.39
504.355	22.4
504.555	22.42
504.754	22.42
504.954	22.46
505.154	22.5
505.354	22.54
505.553	22.55
505.753	22.58
505.953	22.59
506.153	22.59
506.352	22.62
506.552	22.66
506.752	22.69
506.951	22.73
507.151	22.72
507.351	22.74
507.55	22.76
507.75	22.79
507.949	22.81
508.149	22.85
508.348	22.89
508.548	22.89
508.747	22.9
508.947	22.9
509.146	22.91
509.346	22.94
509.545	22.95
509.745	22.95
509.944	22.97
510.144	23.01
510.343	23.01
510.543	23.04
510.742	23.08
510.941	23.1
511.141	23.12
511.34	23.16
511.539	23.2
511.739	23.24
511.938	23.27
512.137	23.29
512.337	23.3
512.536	23.34
512.735	23.35
512.934	23.38
513.134	23.41
513.333	23.45
513.532	23.49
513.731	23.5
513.93	23.52
514.129	23.56
514.329	23.58
514.528	23.6
514.727	23.63
514.926	23.68
515.125	23.72
515.324	23.75
515.523	23.79
515.722	23.81
515.921	23.83
516.12	23.88
516.319	23.89
516.518	23.91
516.717	23.93
516.916	23.94
517.115	23.94
517.314	23.95
517.513	23.95
517.712	23.93
517.911	23.93
518.11	23.95
518.309	23.96
518.507	23.96
518.706	23.99
518.905	24.02
519.104	24.04
519.303	24.07
519.501	24.1
519.7	24.13
519.899	24.17
520.098	24.22
520.296	24.26
520.495	24.3
520.694	24.35
520.893	24.38
521.091	24.4
521.29	24.41
521.489	24.47
521.687	24.51
521.886	24.55
522.084	24.57
522.283	24.58
522.482	24.61
522.68	24.65
522.879	24.67
523.077	24.7
523.276	24.74
523.474	24.8
523.673	24.81
523.871	24.81
524.07	24.82
524.268	24.86
524.467	24.88
524.665	24.88
524.863	24.89
525.062	24.92
525.26	24.93
525.459	24.92
525.657	24.93
525.855	24.94
526.054	24.96
526.252	24.99
526.45	25
526.649	25.01
526.847	25.03
527.045	25.02
527.243	25.03
527.442	25.04
527.64	25.06
527.838	25.08
528.036	25.11
528.234	25.14
528.433	25.18
528.631	25.23
528.829	25.27
529.027	25.29
529.225	25.32
529.423	25.35
529.621	25.39
529.819	25.44
530.017	25.49
530.215	25.53
530.414	25.56
530.612	25.58
530.81	25.59
531.008	25.61
531.206	25.66
531.403	25.7
531.601	25.73
531.799	25.75
531.997	25.76
532.195	25.75
532.393	25.77
532.591	25.78
532.789	25.81
532.987	25.84
533.184	25.85
533.382	25.86
533.58	25.89
533.778	25.92
533.976	25.96
534.173	26
534.371	26.03
534.569	26.08
534.767	26.12
534.964	26.16
535.162	26.19
535.36	26.24
535.557	26.27
535.755	26.31
535.953	26.33
536.15	26.36
536.348	26.39
536.546	26.42
536.743	26.45
536.941	26.48
537.138	26.51
537.336	26.54
537.533	26.56
537.731	26.6
537.928	26.63
538.126	26.67
538.323	26.72
538.521	26.77
538.718	26.81
538.916	26.85
539.113	26.88
539.311	26.9
539.508	26.94
539.705	26.95
539.903	26.94
540.1	26.95
540.297	26.94
540.495	26.93
540.692	26.94
540.889	26.94
541.087	26.96
541.284	26.98
541.481	27.01
541.678	27.03
541.876	27.05
542.073	27.09
542.27	27.14
542.467	27.18
542.664	27.21
542.862	27.25
543.059	27.3
543.256	27.32
543.453	27.35
543.65	27.38
543.847	27.41
544.044	27.46
544.241	27.49
544.438	27.51
544.635	27.54
544.832	27.59
545.029	27.62
545.226	27.64
545.423	27.68
545.62	27.71
545.817	27.73
546.014	27.77
546.211	27.77
546.408	27.79
546.605	27.83
546.802	27.87
546.999	27.92
547.196	27.97
547.392	28.01
547.589	28.04
547.786	28.08
547.983	28.14
548.18	28.18
548.376	28.23
548.573	28.3
548.77	28.32
548.967	28.35
549.163	28.35
549.36	28.39
549.557	28.41
549.753	28.44
549.95	28.47
550.147	28.51
550.343	28.55
550.54	28.59
550.737	28.61
550.933	28.65
551.13	28.71
551.326	28.76
551.523	28.77
551.719	28.79
551.916	28.8
552.112	28.84
552.309	28.84
552.505	28.88
552.702	28.91
552.898	28.93
553.095	28.98
553.291	29.01
553.487	29.04
553.684	29.09
553.88	29.11
554.077	29.18
554.273	29.23
554.469	29.27
554.666	29.32
554.862	29.35
555.058	29.36
555.255	29.39
555.451	29.41
555.647	29.42
555.843	29.47
556.039	29.54
556.236	29.55
556.432	29.57
556.628	29.62
556.824	29.63
557.02	29.67
557.217	29.72
557.413	29.79
557.609	29.81
557.805	29.85
558.001	29.86
558.197	29.88
558.393	29.92
558.589	29.96
558.785	29.98
558.981	30
559.177	30
559.373	30.05
559.569	30.06
559.765	30.09
559.961	30.12
560.157	30.15
560.353	30.18
560.549	30.18
560.745	30.21
560.941	30.23
561.136	30.25
561.332	30.29
561.528	30.31
561.724	30.32
561.92	30.36
562.116	30.37
562.311	30.41
562.507	30.45
562.703	30.5
562.899	30.54
563.094	30.6
563.29	30.62
563.486	30.64
563.681	30.67
563.877	30.73
564.073	30.76
564.268	30.81
564.464	30.82
564.66	30.82
564.855	30.81
565.051	30.81
565.246	30.79
565.442	30.83
565.637	30.85
565.833	30.86
566.028	30.87
566.224	30.9
566.419	30.94
566.615	30.98
566.81	31.01
567.006	31.04
567.201	31.1
567.397	31.12
567.592	31.14
567.787	31.19
567.983	31.22
568.178	31.26
568.373	31.28
568.569	31.31
568.764	31.34
568.959	31.35
569.155	31.4
569.35	31.42
569.545	31.47
569.74	31.52
569.936	31.55
570.131	31.6
570.326	31.62
570.521	31.65
570.716	31.65
570.912	31.65
571.107	31.68
571.302	31.68
571.497	31.69
571.692	31.73
571.887	31.74
572.082	31.78
572.277	31.81
572.472	31.85
572.667	31.86
572.862	31.91
573.057	31.97
573.252	32.03
573.447	32.09
573.642	32.13
573.837	32.15
574.032	32.16
574.227	32.16
574.422	32.18
574.617	32.2
574.812	32.24
575.007	32.28
575.202	32.29
575.396	32.33
575.591	32.34
575.786	32.37
575.981	32.43
576.176	32.49
576.37	32.53
576.565	32.58
576.76	32.63
576.955	32.64
577.149	32.67
577.344	32.72
577.539	32.76
577.733	32.82
577.928	32.88
578.123	32.92
578.317	32.93
578.512	32.98
578.706	33.03
578.901	33.05
579.096	33.12
579.29	33.16
579.485	33.18
579.679	33.16
579.874	33.2
580.068	33.24
580.263	33.23
580.457	33.31
580.652	33.37
580.846	33.38
581.04	33.43
581.235	33.44
581.429	33.49
581.624	33.54
581.818	33.61
582.012	33.67
582.207	33.67
582.401	33.71
582.595	33.71
582.79	33.75
582.984	33.81
583.178	33.83
583.372	33.85
583.567	33.85
583.761	33.88
583.955	33.94
584.149	33.96
584.344	33.98
584.538	34.03
584.732	34.06
584.926	34.05
585.12	34.05
585.314	34.08
585.508	34.13
585.702	34.17
585.896	34.23
586.091	34.24
586.285	34.27
586.479	34.28
586.673	34.31
586.867	34.36
587.061	34.41
587.255	34.47
587.449	34.49
587.642	34.55
587.836	34.58
588.03	34.58
588.224	34.62
588.418	34.65
588.612	34.7
588.806	34.73
589	34.77
589.193	34.79
589.387	34.77
589.581	34.83
589.775	34.85
589.969	34.89
590.162	34.95
590.356	34.96
590.55	34.97
590.744	34.99
590.937	35.01
591.131	35.05
591.325	35.08
591.518	35.14
591.712	35.16
591.906	35.2
592.099	35.22
592.293	35.23
592.486	35.29
592.68	35.37
592.874	35.44
593.067	35.45
593.261	35.46
593.454	35.48
593.648	35.54
593.841	35.56
594.035	35.55
594.228	35.59
594.421	35.63
594.615	35.64
594.808	35.64
595.002	35.63
595.195	35.69
595.388	35.73
595.582	35.74
595.775	35.73
595.968	35.71
596.162	35.73
596.355	35.76
596.548	35.77
596.742	35.77
596.935	35.81
597.128	35.84
597.321	35.84
597.515	35.89
597.708	35.92
597.901	36
598.094	36.05
598.287	36.12
598.48	36.17
598.674	36.2
598.867	36.24
599.06	36.26
599.253	36.35
599.446	36.42
599.639	36.44
599.832	36.49
600.025	36.51
600.218	36.57
600.411	36.59
600.604	36.61
600.797	36.66
600.99	36.69
601.183	36.75
601.376	36.7
601.569	36.69
601.762	36.73
601.955	36.74
602.147	36.76
602.34	36.77
602.533	36.77
602.726	36.79
602.919	36.8
603.112	36.83
603.304	36.82
603.497	36.86
603.69	36.89
603.883	36.87
604.075	36.87
604.268	36.87
604.461	36.88
604.654	36.93
604.846	36.94
605.039	36.99
605.231	37.04
605.424	37.07
605.617	37.12
605.809	37.16
606.002	37.23
606.194	37.3
606.387	37.39
606.58	37.45
606.772	37.49
606.965	37.54
607.157	37.57
607.35	37.6
607.542	37.64
607.735	37.69
607.927	37.7
608.119	37.71
608.312	37.75
608.504	37.77
608.697	37.77
608.889	37.79
609.081	37.81
609.274	37.83
609.466	37.86
609.658	37.88
609.851	37.88
610.043	37.9
610.235	37.96
610.427	37.99
610.62	37.99
610.812	38.06
611.004	38.13
611.196	38.18
611.388	38.2
611.581	38.25
611.773	38.32
611.965	38.38
612.157	38.43
612.349	38.48
612.541	38.51
612.733	38.59
612.925	38.63
613.117	38.63
613.309	38.7
613.501	38.76
613.693	38.81
613.885	38.81
614.077	38.83
614.269	38.86
614.461	38.85
614.653	38.89
614.845	38.89
615.037	38.93
615.229	38.94
615.421	38.96
615.613	38.96
615.805	38.99
615.996	39.06
616.188	39.12
616.38	39.23
616.572	39.28
616.764	39.28
616.955	39.3
617.147	39.33
617.339	39.4
617.531	39.43
617.722	39.51
617.914	39.53
618.106	39.56
618.297	39.57
618.489	39.52
618.681	39.55
618.872	39.62
619.064	39.67
619.255	39.69
619.447	39.7
619.639	39.74
619.83	39.76
620.022	39.82
620.213	39.81
620.405	39.85
620.596	39.88
620.788	39.91
620.979	39.94
621.171	39.96
621.362	40.01
621.553	40.03
621.745	40.04
621.936	40.04
622.128	40.08
622.319	40.13
622.51	40.16
622.702	40.23
622.893	40.3
623.084	40.34
623.276	40.39
623.467	40.45
623.658	40.49
623.849	40.54
624.041	40.59
624.232	40.59
624.423	40.64
624.614	40.63
624.805	40.68
624.996	40.67
625.188	40.68
625.379	40.68
625.57	40.68
625.761	40.67
625.952	40.64
626.143	40.63
626.334	40.62
626.525	40.62
626.716	40.69
626.907	40.7
627.098	40.7
627.289	40.72
627.48	40.71
627.671	40.71
627.862	40.78
628.053	40.83
628.244	40.88
628.435	40.91
628.626	40.97
628.816	40.98
629.007	40.96
629.198	41.02
629.389	41.06
629.58	41.1
629.771	41.15
629.961	41.19
630.152	41.23
630.343	41.25
630.534	41.26
630.724	41.29
630.915	41.35
631.106	41.44
631.296	41.44
631.487	41.47
631.678	41.51
631.868	41.56
632.059	41.59
632.25	41.62
632.44	41.64
632.631	41.7
632.821	41.73
633.012	41.75
633.202	41.74
633.393	41.76
633.583	41.77
633.774	41.82
633.964	41.79
634.155	41.8
634.345	41.84
634.536	41.9
634.726	41.94
634.916	41.98
635.107	41.99
635.297	42.06
635.488	42.1
635.678	42.17
635.868	42.17
636.059	42.22
636.249	42.3
636.439	42.34
636.629	42.36
636.82	42.41
637.01	42.39
637.2	42.41
637.39	42.44
637.581	42.48
637.771	42.5
637.961	42.59
638.151	42.63
638.341	42.6
638.531	42.56
638.721	42.61
638.911	42.59
639.102	42.71
639.292	42.73
639.482	42.77
639.672	42.8
639.862	42.8
640.052	42.86
640.242	42.93
640.432	42.96
640.622	43.06
640.812	43.07
641.002	43.07
641.191	43.06
641.381	43.09
641.571	43.06
641.761	43.07
641.951	43.13
642.141	43.09
642.331	43.07
642.52	43.12
642.71	43.11
642.9	43.15
643.09	43.29
643.28	43.32
643.469	43.36
643.659	43.45
643.849	43.49
644.038	43.53
644.228	43.58
644.418	43.63
644.607	43.65
644.797	43.79
644.987	43.86
645.176	43.84
645.366	43.86
645.556	43.92
645.745	43.93
645.935	43.99
646.124	43.98
646.314	43.99
646.503	44.01
646.693	44.06
646.882	43.98
647.072	43.97
647.261	43.98
647.45	44.01
647.64	44.01
647.829	44.05
648.019	44.02
648.208	44.09
648.397	44.13
648.587	44.15
648.776	44.14
648.965	44.15
649.155	44.2
649.344	44.29
649.533	44.31
649.723	44.3
649.912	44.29
650.101	44.36
650.29	44.36
650.479	44.4
650.669	44.42
650.858	44.48
651.047	44.57
651.236	44.6
651.425	44.55
651.614	44.57
651.803	44.63
651.992	44.66
652.182	44.69
652.371	44.74
652.56	44.78
652.749	44.85
652.938	44.81
653.127	44.81
653.316	44.85
653.505	44.91
653.694	44.95
653.882	44.98
654.071	45.03
654.26	45.05
654.449	45.08
654.638	45.09
654.827	45.08
655.016	45.14
655.205	45.19
655.393	45.19
655.582	45.19
655.771	45.17
655.96	45.2
656.149	45.27
656.337	45.24
656.526	45.26
656.715	45.3
656.903	45.36
657.092	45.39
657.281	45.38
657.469	45.42
657.658	45.47
657.847	45.5
658.035	45.49
658.224	45.44
658.412	45.47
658.601	45.46
658.79	45.43
658.978	45.42
659.167	45.43
659.355	45.44
659.544	45.42
659.732	45.42
659.921	45.47
660.109	45.49
660.297	45.55
660.486	45.65
660.674	45.67
660.863	45.73
661.051	45.77
661.239	45.81
661.428	45.86
661.616	45.91
661.804	45.97
661.993	45.98
662.181	46.03
662.369	46.07
662.557	46.03
662.746	46.09
662.934	46.13
663.122	46.19
663.31	46.23
663.498	46.27
663.687	46.31
663.875	46.38
664.063	46.43
664.251	46.48
664.439	46.54
664.627	46.57
664.815	46.64
665.003	46.7
665.191	46.71
665.379	46.75
665.567	46.8
665.755	46.89
665.943	46.9
666.131	46.91
666.319	46.9
666.507	46.93
666.695	47
666.883	46.95
667.071	46.94
667.259	46.99
667.447	47.02
667.635	47.05
667.823	46.99
668.01	46.99
668.198	47.03
668.386	47.08
668.574	47.08
668.761	47.08
668.949	47.15
669.137	47.25
669.325	47.24
669.512	47.2
669.7	47.23
669.888	47.29
670.075	47.34
670.263	47.4
670.451	47.43
670.638	47.45
670.826	47.45
671.013	47.48
671.201	47.47
671.389	47.48
671.576	47.55
671.764	47.56
671.951	47.58
672.139	47.61
672.326	47.57
672.514	47.59
672.701	47.55
672.889	47.61
673.076	47.64
673.263	47.64
673.451	47.69
673.638	47.73
673.825	47.79
674.013	47.84
674.2	47.86
674.387	47.92
674.575	47.94
674.762	47.99
674.949	48.04
675.137	48.01
675.324	48.09
675.511	48.13
675.698	48.11
675.885	48.1
676.073	48.08
676.26	48.13
676.447	48.18
676.634	48.25
676.821	48.27
677.008	48.31
677.195	48.33
677.383	48.3
677.57	48.33
677.757	48.38
677.944	48.45
678.131	48.48
678.318	48.45
678.505	48.43
678.692	48.4
678.879	48.46
679.066	48.45
679.253	48.51
679.439	48.51
679.626	48.51
679.813	48.5
680	48.45
680.187	48.45
680.374	48.45
680.561	48.47
680.747	48.54
680.934	48.53
681.121	48.5
681.308	48.49
681.494	48.52
681.681	48.56
681.868	48.62
682.055	48.69
682.241	48.75
682.428	48.83
682.615	48.91
682.801	48.89
682.988	48.95
683.175	49.01
683.361	49.05
683.548	49.1
683.734	49.12
683.921	49.12
684.107	49.15
684.294	49.19
684.48	49.23
684.667	49.25
684.853	49.28
685.04	49.27
685.226	49.3
685.413	49.36
685.599	49.39
685.786	49.44
685.972	49.46
686.158	49.47
686.345	49.49
686.531	49.52
686.717	49.49
686.904	49.47
687.09	49.55
687.276	49.54
687.463	49.52
687.649	49.55
687.835	49.56
688.021	49.65
688.208	49.65
688.394	49.64
688.58	49.67
688.766	49.7
688.952	49.76
689.138	49.78
689.324	49.8
689.511	49.82
689.697	49.89
689.883	49.93
690.069	49.92
690.255	49.92
690.441	49.96
690.627	49.95
690.813	49.96
690.999	50
691.185	50.07
691.371	50.13
691.557	50.2
691.743	50.17
691.929	50.14
692.115	50.13
692.3	50.16
692.486	50.21
692.672	50.23
692.858	50.36
693.044	50.33
693.23	50.32
693.415	50.35
693.601	50.35
693.787	50.36
693.973	50.4
694.158	50.46
694.344	50.46
694.53	50.43
694.715	50.48
694.901	50.41
695.087	50.47
695.272	50.49
695.458	50.48
695.644	50.51
695.829	50.52
696.015	50.57
696.2	50.61
696.386	50.66
696.571	50.7
696.757	50.7
696.943	50.73
697.128	50.75
697.313	50.72
697.499	50.67
697.684	50.67
697.87	50.56
698.055	50.58
698.241	50.51
698.426	50.51
698.611	50.48
698.797	50.46
698.982	50.45
699.167	50.43
699.353	50.48
699.538	50.5
699.723	50.54
699.909	50.62
700.094	50.62
700.279	50.7
700.464	50.71
700.649	50.79
700.835	50.83
701.02	50.89
701.205	51
701.39	51.06
701.575	51.14
701.76	51.14
701.945	51.2
702.13	51.23
702.316	51.28
702.501	51.37
702.686	51.35
702.871	51.41
703.056	51.46
703.241	51.46
703.426	51.47
703.611	51.48
703.796	51.59
703.98	51.57
704.165	51.59
704.35	51.64
704.535	51.58
704.72	51.66
704.905	51.67
705.09	51.69
705.275	51.72
705.459	51.77
705.644	51.83
705.829	51.81
706.014	51.91
706.198	51.98
706.383	51.99
706.568	52.08
706.753	52.04
706.937	52.06
707.122	52.05
707.307	52.04
707.491	51.97
707.676	51.98
707.86	51.98
708.045	52.01
708.23	52.02
708.414	52.01
708.599	52.01
708.783	52.04
708.968	52.06
709.152	52.07
709.337	52.08
709.521	52.17
709.706	52.22
709.89	52.25
710.075	52.16
710.259	52.16
710.443	52.19
710.628	52.22
710.812	52.38
710.997	52.33
711.181	52.39
711.365	52.45
711.55	52.47
711.734	52.48
711.918	52.48
712.102	52.56
712.287	52.6
712.471	52.67
712.655	52.63
712.839	52.57
713.023	52.57
713.208	52.55
713.392	52.5
713.576	52.49
713.76	52.51
713.944	52.5
714.128	52.51
714.312	52.44
714.496	52.37
714.68	52.46
714.864	52.48
715.048	52.56
715.232	52.58
715.416	52.64
715.6	52.64
715.784	52.64
715.968	52.61
716.152	52.6
716.336	52.7
716.52	52.77
716.704	52.73
716.888	52.8
717.072	52.84
717.256	52.86
717.439	52.87
717.623	52.87
717.807	52.86
717.991	52.96
718.174	53.05
718.358	53.05
718.542	53.02
718.726	53.14
718.909	53.07
719.093	53.09
719.277	53.16
719.46	53.24
719.644	53.32
719.828	53.38
720.011	53.46
720.195	53.5
720.378	53.51
720.562	53.62
720.746	53.69
720.929	53.79
721.113	53.86
721.296	53.88
721.48	53.87
721.663	53.94
721.846	53.95
722.03	54.03
722.213	54
722.397	54.06
722.58	53.98
722.764	53.83
722.947	53.86
723.13	53.87
723.314	53.9
723.497	53.99
723.68	53.95
723.863	53.98
724.047	53.98
724.23	54.01
724.413	54.1
724.596	54.17
724.78	54.19
724.963	54.17
725.146	54.06
725.329	54.03
725.512	53.99
725.695	54.04
725.879	54.1
726.062	54.02
726.245	54.09
726.428	54.01
726.611	53.97
726.794	54.07
726.977	54.1
727.16	54.17
727.343	54.19
727.526	54.29
727.709	54.29
727.892	54.36
728.075	54.39
728.258	54.4
728.441	54.46
728.624	54.48
728.806	54.47
728.989	54.48
729.172	54.41
729.355	54.43
729.538	54.39
729.721	54.4
729.903	54.35
730.086	54.38
730.269	54.32
730.452	54.3
730.634	54.33
730.817	54.47
731	54.48
731.182	54.59
731.365	54.66
731.548	54.67
731.73	54.66
731.913	54.63
732.095	54.57
732.278	54.59
732.461	54.67
732.643	54.74
732.826	54.7
733.008	54.74
733.191	54.76
733.373	54.7
733.556	54.73
733.738	54.75
733.921	54.74
734.103	54.8
734.285	54.85
734.468	54.78
734.65	54.74
734.833	54.7
735.015	54.64
735.197	54.65
735.38	54.69
735.562	54.77
735.744	54.81
735.926	54.92
736.109	54.99
736.291	55.02
736.473	55.16
736.655	55.22
736.838	55.33
737.02	55.39
737.202	55.45
737.384	55.49
737.566	55.4
737.748	55.43
737.93	55.47
738.113	55.45
738.295	55.45
738.477	55.4
738.659	55.37
738.841	55.37
739.023	55.36
739.205	55.35
739.387	55.33
739.569	55.34
739.751	55.29
739.933	55.32
740.114	55.39
740.296	55.41
740.478	55.46
740.66	55.63
740.842	55.56
741.024	55.64
741.206	55.64
741.387	55.69
741.569	55.71
741.751	55.83
741.933	55.8
742.115	55.77
742.296	55.77
742.478	55.72
742.66	55.65
742.841	55.74
743.023	55.68
743.205	55.67
743.386	55.74
743.568	55.87
743.75	55.81
743.931	55.74
744.113	55.71
744.294	55.8
744.476	55.84
744.657	55.91
744.839	55.96
745.02	56.03
745.202	56.1
745.383	56.06
745.565	55.93
745.746	55.99
745.928	56.1
746.109	56.29
746.291	56.36
746.472	56.46
746.653	56.36
746.835	56.35
747.016	56.38
747.197	56.48
747.379	56.43
747.56	56.53
747.741	56.58
747.922	56.51
748.104	56.41
748.285	56.44
748.466	56.35
748.647	56.45
748.828	56.62
749.01	56.6
749.191	56.62
749.372	56.7
749.553	56.74
749.734	56.67
749.915	56.83
750.096	56.79
750.277	56.71
750.458	56.75
750.639	56.75
750.82	56.62
751.001	56.72
751.182	56.74
751.363	56.77
751.544	56.84
751.725	56.96
751.906	56.99
752.087	57.12
752.268	57.21
752.449	57.21
752.63	57.1
752.81	57.11
752.991	57.12
753.172	57.01
753.353	57
753.534	56.83
753.714	56.83
753.895	56.78
754.076	56.73
754.256	56.7
754.437	56.83
754.618	57.04
754.798	57.01
754.979	57.02
755.16	56.93
755.34	56.96
755.521	57.01
755.702	56.99
755.882	57
756.063	57.02
756.243	57.07
756.424	57.04
756.604	56.84
756.785	56.9
756.965	56.95
757.146	57.16
757.326	57.13
757.507	57.2
757.687	57.23
757.867	57.32
758.048	57.27
758.228	57.25
758.408	57.22
758.589	57.42
758.769	57.41
758.949	57.35
759.13	57.44
759.31	57.56
759.49	57.58
759.671	57.72
759.851	57.61
760.031	57.61
760.211	57.56
760.391	57.55
760.572	57.48
760.752	57.55
760.932	57.59
761.112	57.52
761.292	57.49
761.472	57.67
761.652	57.6
761.832	57.64
762.012	57.77
762.192	57.72
762.372	57.72
762.552	57.66
762.732	57.59
762.912	57.53
763.092	57.44
763.272	57.38
763.452	57.31
763.632	57.38
763.812	57.43
763.992	57.47
764.172	57.56
764.351	57.68
764.531	57.76
764.711	57.78
764.891	57.83
765.071	57.98
765.25	58.08
765.43	58.08
765.61	58.03
765.79	58.03
765.969	58.01
766.149	57.99
766.329	57.92
766.508	57.9
766.688	57.97
766.867	58.01
767.047	58.01
767.227	58
767.406	58.08
767.586	58.05
767.765	58.11
767.945	58.18
768.124	58.27
768.304	58.21
768.483	58.3
768.663	58.26
768.842	58.23
769.022	58.21
769.201	58.19
769.38	58.18
769.56	58.36
769.739	58.32
769.919	58.11
770.098	58.04
770.277	58
770.457	57.97
770.636	58.15
770.815	58.14
770.994	58.23
771.174	58.28
771.353	58.32
771.532	58.25
771.711	58.3
771.89	58.49
772.07	58.56
772.249	58.73
772.428	58.82
772.607	58.71
772.786	58.88
772.965	58.66
773.144	58.68
773.323	58.56
773.502	58.58
773.681	58.56
773.86	58.6
774.039	58.51
774.218	58.45
774.397	58.32
774.576	58.4
774.755	58.28
774.934	58.51
775.113	58.64
775.292	58.77
775.471	58.75
775.65	58.85
775.828	58.94
776.007	58.96
776.186	59.03
776.365	59.06
776.544	59.01
776.722	59.16
776.901	59.21
777.08	59.05
777.258	58.95
777.437	59.11
777.616	59.17
777.795	59.13
777.973	59.22
778.152	59.19
778.33	59.26
778.509	59.4
778.688	59.14
778.866	59.07
779.045	59.09
779.223	59.21
779.402	59.15
779.58	59.05
779.759	59.07
779.937	59.06
780.116	59.02
780.294	58.99
780.473	58.92
780.651	59.05
780.829	58.96
781.008	58.83
781.186	58.97
781.364	59.01
781.543	59.04
781.721	59.03
781.899	59.01
782.078	59.05
782.256	59.22
782.434	59.24
782.612	59.3
782.791	59.4
782.969	59.67
783.147	59.62
783.325	59.66
783.503	59.76
783.681	59.76
783.86	59.75
784.038	59.85
784.216	59.74
784.394	59.69
784.572	59.72
784.75	59.66
784.928	59.65
785.106	59.6
785.284	59.43
785.462	59.56
785.64	59.57
785.818	59.8
785.996	59.83
786.174	59.88
786.352	59.96
786.53	59.96
786.707	60.13
786.885	60.11
787.063	60.24
787.241	60.27
787.419	60.17
787.597	60.28
787.774	60.31
787.952	60.35
788.13	60.35
788.308	60.33
788.485	60.28
788.663	60.09
788.841	60.14
789.018	60.09
789.196	60.25
789.374	60.35
789.551	60.19
789.729	60.05
789.906	59.98
790.084	59.99
790.262	59.75
790.439	59.77
790.617	59.91
790.794	59.82
790.972	59.79
791.149	59.66
791.327	59.39
791.504	59.6
791.681	59.56
791.859	59.58
792.036	59.59
792.214	59.93
792.391	59.99
792.568	60.06
792.746	60.26
792.923	60.39
793.1	60.54
793.278	60.67
793.455	60.47
793.632	60.63
793.809	60.72
793.987	60.53
794.164	60.49
794.341	60.45
794.518	60.57
794.695	60.48
794.872	60.5
795.05	60.52
795.227	60.63
795.404	60.68
795.581	60.67
795.758	60.63
795.935	60.78
796.112	60.75
796.289	60.62
796.466	60.4
796.643	60.47
796.82	60.26
796.997	60.25
797.174	60.23
797.351	60.29
797.528	60.38
797.704	60.47
797.881	60.61
798.058	60.67
798.235	61.01
798.412	60.98
798.589	60.86
798.765	61.05
798.942	61
799.119	60.92
799.296	60.87
799.472	60.79
799.649	60.76
799.826	60.78
800.003	60.82
800.179	60.69
800.356	60.75
800.533	60.79
800.709	60.88
800.886	60.9
801.062	61.05
801.239	61.22
801.415	61.46
801.592	61.5
801.769	61.46
801.945	61.4
802.122	61.52
802.298	61.44
802.474	61.54
802.651	61.51
802.827	61.57
803.004	61.65
803.18	61.47
803.356	61.34
803.533	61.3
803.709	61.39
803.886	61.5
804.062	61.42
804.238	61.62
804.414	61.61
804.591	61.48
804.767	61.3
804.943	61.3
805.119	61.23
805.296	61.24
805.472	61.33
805.648	61.3
805.824	61.39
806	61.34
806.176	61.44
806.352	61.53
806.529	61.64
806.705	61.81
806.881	61.67
807.057	61.83
807.233	61.78
807.409	61.71
807.585	61.76
807.761	61.68
807.937	61.79
808.113	61.72
808.289	61.89
808.464	61.88
808.64	61.8
808.816	62.04
808.992	62.03
809.168	61.98
809.344	62.12
809.52	62.01
809.695	62.03
809.871	62.08
810.047	62.06
810.223	61.85
810.398	61.9
810.574	62.03
810.75	61.87
810.926	61.92
811.101	62.02
811.277	61.85
811.453	61.96
811.628	62.05
811.804	62.12
811.979	62.21
812.155	62.25
812.331	62.1
812.506	62.09
812.682	62
812.857	62.06
813.033	61.99
813.208	62.16
813.384	62.25
813.559	62.23
813.734	62.16
813.91	62.19
814.085	62.12
814.261	62.38
814.436	62.25
814.611	62.41
814.787	62.5
814.962	62.66
815.137	62.66
815.313	62.61
815.488	62.5
815.663	62.45
815.838	62.5
816.014	62.48
816.189	62.48
816.364	62.9
816.539	62.86
816.714	62.72
816.89	62.54
817.065	62.71
817.24	62.67
817.415	62.81
817.59	62.58
817.765	62.54
817.94	62.54
818.115	62.58
818.29	62.5
818.465	62.58
818.64	62.81
818.815	62.76
818.99	62.51
819.165	62.32
819.34	62.09
819.515	62.24
819.69	61.93
819.865	62.04
820.039	61.96
820.214	61.73
820.389	61.69
820.564	61.55
820.739	61.72
820.913	61.79
821.088	61.85
821.263	61.82
821.438	61.6
821.612	61.51
821.787	61.41
821.962	61.23
822.136	61.16
822.311	60.93
822.486	60.94
822.66	60.89
822.835	60.89
823.009	60.92
823.184	61.03
823.359	61.13
823.533	61.26
823.708	61.33
823.882	61.46
824.057	61.55
824.231	61.75
824.405	61.87
824.58	62.03
824.754	62.15
824.929	62.29
825.103	62.31
825.277	62.37
825.452	62.41
825.626	62.41
825.801	62.39
825.975	62.49
826.149	62.53
826.323	62.57
826.498	62.6
826.672	62.58
826.846	62.46
827.02	62.33
827.195	62.23
827.369	62.06
827.543	62.07
827.717	62.04
827.891	62.05
828.065	62
828.239	62
828.413	61.96
828.587	62.04
828.762	62.18
828.936	62.33
829.11	62.54
829.284	62.79
829.458	62.91
829.632	63.13
829.805	63.14
829.979	63.41
830.153	63.57
830.327	63.62
830.501	63.53
830.675	63.54
830.849	63.57
831.023	63.5
831.196	63.45
831.37	63.46
831.544	63.26
831.718	63.42
831.892	63.25
832.065	63.13
832.239	63.46
832.413	63.59
832.586	63.3
832.76	63.12
832.934	63.12
833.107	62.87
833.281	62.81
833.455	62.82
833.628	62.54
833.802	62.22
833.975	61.93
834.149	61.91
834.322	61.91
834.496	62.02
834.67	62.21
834.843	62.18
835.016	62.28
835.19	62.28
835.363	62.39
835.537	62.53
835.71	62.85
835.884	63.21
836.057	63.36
836.23	63.5
836.404	63.65
836.577	63.53
836.75	63.8
836.923	63.91
837.097	63.99
837.27	64
837.443	64.08
837.616	64.2
837.79	64.43
837.963	64.27
838.136	64.31
838.309	64.47
838.482	64.77
838.655	64.65
838.829	64.79
839.002	65.3
839.175	65.36
839.348	65.47
839.521	65.33
839.694	64.91
839.867	64.91
840.04	64.77
840.213	64.7
840.386	64.61
840.559	64.58
840.732	64.35
840.905	64.17
841.077	64.18
841.25	64.09
841.423	64.16
841.596	64.29
841.769	64.33
841.942	64.3
842.114	64.43
842.287	64.6
842.46	64.63
842.633	64.78
842.806	64.68
842.978	64.5
843.151	64.85
843.324	64.99
843.496	65.03
843.669	65.13
843.842	65.3
844.014	65.57
844.187	65.59
844.359	65.93
844.532	66.08
844.704	66.31
844.877	66.64
845.05	66.89
845.222	67
845.395	67.09
845.567	67.13
845.739	67
845.912	66.24
846.084	66.38
846.257	66.32
846.429	66.34
846.601	66.13
846.774	65.94
846.946	66.03
847.119	66.16
847.291	66.1
847.463	66.22
847.635	66.94
847.808	67.38
847.98	67.08
848.152	67.04
848.324	67.39
848.497	67.34
848.669	67.52
848.841	66.95
849.013	66.66
849.185	66.49
849.357	66.55
849.529	65.99
849.701	66.31
849.873	66.93
850.046	66.92
850.218	67.07
850.39	67.14
850.562	67.55
850.734	67.32
850.906	66.92
851.077	66.64
851.249	66.72
851.421	67.26
851.593	67.33
851.765	67.21
851.937	67.35
852.109	66.92
852.281	67.21
852.452	66.73
852.624	67.45
852.796	68.18
852.968	68.85
853.14	68.69
853.311	68.84
853.483	68.53
853.655	68.65
853.826	68.79
853.998	68.92
854.17	68.85
854.341	68.85
854.513	69.09
854.685	68.77
854.856	68.16
855.028	68.43
855.199	68.29
855.371	68.46
855.542	68.38
855.714	68.17
855.885	68.71
856.057	68.61
856.228	68.9
856.4	68.31
856.571	68.65
856.743	69.1
856.914	69.22
857.085	68.61
857.257	69.18
857.428	69.2
857.599	69.09
857.771	68.62
857.942	68.17
858.113	67.8
858.284	67.72
858.456	67.38
858.627	67.63
858.798	67.24
858.969	67.38
859.141	66.64
859.312	67
859.483	67.62
859.654	67.48
859.825	67.67
859.996	68.51
860.167	68.4
860.338	68.53
860.509	68.48
860.68	68.96
860.851	69.08
861.022	69.39
861.193	69.05
861.364	68.1
861.535	68.58
861.706	69.18
861.877	68.99
862.048	69.29
862.219	69.88
862.39	70.12
862.561	70.4
862.731	70.72
862.902	70.31
863.073	70.02
863.244	70.96
863.415	70.11
863.585	70.46
863.756	70.15
863.927	69.91
864.097	69.59
864.268	68.98
864.439	69
864.609	69.12
864.78	69.32
864.951	69.3
865.121	69.22
865.292	69.63
865.463	69.11
865.633	69.34
865.804	69.89
865.974	69.2
866.145	69.67
866.315	69.01
866.486	69.12
866.656	69.29
866.826	69.5
866.997	69.19
867.167	69.31
867.338	69.43
867.508	69.42
867.678	69.55
867.849	70.07
868.019	69.49
868.189	69.59
868.36	69.52
868.53	69.36
868.7	70
868.87	70
869.041	70.15
869.211	70.38
869.381	70.66
869.551	70.49
869.721	70.34
869.891	70.99
870.062	71.09
870.232	70.99
870.402	71.24
870.572	69.9
870.742	70.05
870.912	69.65
871.082	69.29
871.252	69.58
871.422	69.49
871.592	70.62
871.762	69.79
871.932	70
872.102	70.2
872.272	70.17
872.442	71.22
872.611	70.62
872.781	70.73
872.951	70.31
873.121	69.36
873.291	69.15
873.461	68.38
873.63	69.42
873.8	69.7
873.97	69.54
874.14	69.73
874.309	69.43
874.479	69.64
874.649	70.09
874.818	70.77
874.988	71.15
875.158	71.25
875.327	71.15
875.497	70.66
875.666	70.39
875.836	70.46
876.005	70.59
876.175	71.09
876.344	71.18
876.514	70.54
876.683	70.62
876.853	70.65
877.022	70.38
877.192	70.81
877.361	71.29
877.531	71.53
877.7	71.65
877.869	71.8
878.039	71.88
878.208	72.67
878.377	73.09
878.547	73.24
878.716	73
878.885	73.07
879.054	72.64
879.224	72.06
879.393	71.85
879.562	71.19
879.731	69.83
879.9	69.23
880.069	68.49
880.239	68.27
880.408	67.34
880.577	67.01
880.746	66.69
880.915	66.44
881.084	66.16
881.253	65.38
881.422	65.35
881.591	65.26
881.76	65.24
881.929	65.06
882.098	64.82
882.267	64.82
882.436	64.83
882.605	64.85
882.773	64.82
882.942	64.87
883.111	64.98
883.28	65.1
883.449	65.19
883.618	65.1
883.786	65.16
883.955	65.21
884.124	65.32
884.293	65.36
884.461	65.38
884.63	65.42
884.799	65.59
884.967	65.84
885.136	65.81
885.305	65.94
885.473	66.32
885.642	66.55
885.81	67.03
885.979	67.04
886.148	67.37
886.316	67.83
886.485	68.16
886.653	68.27
886.822	68.37
886.99	68.72
887.158	68.8
887.327	68.84
887.495	69.04
887.664	68.58
887.832	68.88
888	69
888.169	68.71
888.337	68.61
888.505	68.2
888.674	67.63
888.842	67.11
889.01	67.12
889.178	66.73
889.347	66.21
889.515	66.2
889.683	66.22
889.851	65.71
