Data from Bird_1_Reflection_3.txt Node
Date: Fri Jan 31 09:37:05 MST 2020
User: Lab User
Spectrometer: USB4J01344
Trigger mode: 0
Integration Time (sec): 1.047400E-1
Scans to average: 20
Electric dark correction enabled: false
Nonlinearity correction enabled: false
Boxcar width: 5
XAxis mode: Wavelengths
Number of Pixels in Spectrum: 3648
>>>>>Begin Spectral Data<<<<<
177.498	-63.25
177.717	-69.07
177.936	-148.44
178.155	-143.27
178.374	-168.39
178.593	-217.49
178.812	-481.91
179.031	-839.57
179.251	-1027.34
179.47	-1588.89
179.689	-1768.59
179.908	8820
180.127	436.49
180.346	286.87
180.565	211.66
180.784	177.89
181.003	149.33
181.222	130.23
181.441	109.47
181.66	94.43
181.879	90.51
182.098	86.02
182.316	86.34
182.535	87.09
182.754	85.09
182.973	81.22
183.192	84.87
183.411	83.42
183.63	88.15
183.849	96.86
184.067	99.33
184.286	99.49
184.505	104.37
184.724	104.99
184.943	102.98
185.161	108.59
185.38	107.9
185.599	103.35
185.818	105.13
186.036	107.75
186.255	99.81
186.474	101.65
186.693	101.6
186.911	99.17
187.13	100.14
187.349	101.71
187.567	95.44
187.786	95.65
188.004	97.75
188.223	98.79
188.442	101.32
188.66	103.85
188.879	100.52
189.097	98.94
189.316	99.56
189.535	95.38
189.753	97.53
189.972	100.65
190.19	102.62
190.409	104.69
190.627	107.36
190.846	102.97
191.064	103.01
191.283	102.25
191.501	105.45
191.719	108.39
191.938	110.38
192.156	107.31
192.375	106.54
192.593	102.43
192.811	103.77
193.03	101.89
193.248	101.86
193.467	97.94
193.685	98.43
193.903	96.05
194.121	95.72
194.34	95.68
194.558	96.45
194.776	99.17
194.995	101.72
195.213	97.42
195.431	92.03
195.649	90.12
195.868	93.42
196.086	95.59
196.304	95.7
196.522	92.56
196.74	90.86
196.958	89.43
197.177	86.61
197.395	89.98
197.613	90.93
197.831	93.58
198.049	91.29
198.267	91.98
198.485	90.41
198.703	88.87
198.921	91.32
199.139	94.22
199.358	94.61
199.576	93.57
199.794	89.22
200.012	87.65
200.23	87.35
200.448	90.66
200.666	88.05
200.883	88.91
201.101	90.35
201.319	89.2
201.537	93.17
201.755	96.5
201.973	96.56
202.191	98.89
202.409	102.33
202.627	104.02
202.845	104.58
203.062	111.27
203.28	109.73
203.498	106.56
203.716	106.26
203.934	98.76
204.151	94.31
204.369	94.16
204.587	94.73
204.805	95.54
205.022	93.42
205.24	89.92
205.458	87.34
205.676	87.67
205.893	91.05
206.111	86.61
206.329	86.63
206.546	84.23
206.764	82.87
206.982	81.06
207.199	81.17
207.417	80.4
207.634	82.6
207.852	76.01
208.07	73.65
208.287	76.32
208.505	76.92
208.722	77
208.94	82.73
209.157	84.09
209.375	79.5
209.592	77.78
209.81	79.94
210.027	78.18
210.245	81.71
210.462	85.47
210.68	79.89
210.897	81.24
211.115	83.61
211.332	78.82
211.549	76.27
211.767	82.8
211.984	82.05
212.201	78.44
212.419	80.39
212.636	78.56
212.854	75.51
213.071	77.8
213.288	76.99
213.505	78.44
213.723	80.3
213.94	84.62
214.157	81.94
214.374	79.24
214.592	82.11
214.809	83.9
215.026	85.7
215.243	85.42
215.461	86.74
215.678	88.86
215.895	88.89
216.112	89.32
216.329	86.93
216.546	88.76
216.763	92.19
216.981	93.39
217.198	90.07
217.415	91.48
217.632	93.81
217.849	91.4
218.066	92.98
218.283	87.45
218.5	85.94
218.717	87.21
218.934	88.56
219.151	86.73
219.368	84.52
219.585	82.94
219.802	83.94
220.019	84.87
220.236	81.82
220.453	79.05
220.67	80.06
220.887	80.75
221.103	77.35
221.32	72.69
221.537	74.1
221.754	75.7
221.971	77.08
222.188	74.69
222.405	72.55
222.621	73.9
222.838	77.5
223.055	76.78
223.272	74.63
223.488	72.89
223.705	72.78
223.922	73.12
224.139	73.34
224.355	73.79
224.572	70.38
224.789	69.96
225.005	66.87
225.222	62.76
225.439	62.4
225.655	65.37
225.872	66.64
226.089	67.2
226.305	65.02
226.522	63.49
226.738	58.99
226.955	56.82
227.172	52.59
227.388	50
227.605	45.52
227.821	42.54
228.038	38.05
228.254	36.16
228.471	35.27
228.687	34.99
228.904	33.86
229.12	34.52
229.337	34.13
229.553	34.44
229.77	35.53
229.986	36.87
230.202	36.49
230.419	38.14
230.635	39.07
230.851	38.08
231.068	37.24
231.284	37.83
231.501	37.84
231.717	37.65
231.933	39.01
232.149	38.27
232.366	38.41
232.582	39.04
232.798	38.1
233.015	37.05
233.231	36.36
233.447	36.77
233.663	35.31
233.879	34.17
234.096	34.42
234.312	33.59
234.528	32.38
234.744	31.47
234.96	31.41
235.176	30.79
235.393	31
235.609	31.29
235.825	30.41
236.041	30.52
236.257	30.66
236.473	30.84
236.689	30.55
236.905	30.61
237.121	30.18
237.337	29.83
237.553	30.1
237.769	29.83
237.985	29.89
238.201	29.94
238.417	29.15
238.633	28.11
238.849	27.52
239.065	26.34
239.281	25.94
239.497	24.99
239.713	24.6
239.928	23.82
240.144	22.92
240.36	22.17
240.576	21.31
240.792	20.82
241.008	20.49
241.223	19.76
241.439	19.51
241.655	19.26
241.871	19.23
242.087	18.99
242.302	18.92
242.518	18.91
242.734	18.68
242.95	18.73
243.165	18.87
243.381	18.96
243.597	19.25
243.812	19.6
244.028	19.74
244.244	19.85
244.459	19.98
244.675	20.04
244.89	20.21
245.106	20.34
245.322	20.12
245.537	19.53
245.753	19.21
245.968	18.78
246.184	18.48
246.399	18.25
246.615	18.17
246.83	18.16
247.046	18.09
247.261	17.98
247.477	17.91
247.692	17.87
247.908	17.98
248.123	18.03
248.339	18.15
248.554	18.26
248.769	18.63
248.985	18.84
249.2	18.97
249.416	19.23
249.631	19.46
249.846	19.61
250.062	19.88
250.277	19.87
250.492	19.95
250.707	20.12
250.923	19.91
251.138	19.57
251.353	19.43
251.569	19.2
251.784	19.09
251.999	19.13
252.214	19.26
252.429	19.36
252.645	19.56
252.86	19.6
253.075	19.53
253.29	19.83
253.505	20.01
253.72	20.35
253.935	20.82
254.151	21.1
254.366	21.23
254.581	21.29
254.796	21.11
255.011	20.99
255.226	20.94
255.441	21.15
255.656	20.82
255.871	21.01
256.086	20.73
256.301	20.54
256.516	20.21
256.731	20.05
256.946	19.98
257.161	19.94
257.376	19.65
257.591	19.69
257.806	19.3
258.02	19.2
258.235	18.63
258.45	18.2
258.665	17.88
258.88	17.66
259.095	17.39
259.31	17.18
259.524	17.03
259.739	17.06
259.954	16.94
260.169	16.95
260.383	16.95
260.598	16.97
260.813	17.02
261.028	17.07
261.242	17.14
261.457	17.31
261.672	17.55
261.886	17.79
262.101	17.91
262.316	18.03
262.53	18.09
262.745	18.07
262.96	18.27
263.174	18.4
263.389	18.47
263.603	18.5
263.818	18.52
264.033	18.45
264.247	18.45
264.462	18.27
264.676	18.39
264.891	18.5
265.105	18.37
265.32	18.08
265.534	17.9
265.749	17.8
265.963	17.72
266.178	17.63
266.392	17.59
266.606	17.58
266.821	17.6
267.035	17.51
267.25	17.35
267.464	17.28
267.678	17.35
267.893	17.4
268.107	17.38
268.321	17.46
268.536	17.42
268.75	17.36
268.964	17.32
269.179	17.26
269.393	16.84
269.607	16.89
269.821	16.97
270.036	16.79
270.25	16.75
270.464	16.69
270.678	16.56
270.892	16.54
271.106	16.54
271.321	16.46
271.535	16.47
271.749	16.63
271.963	16.52
272.177	16.4
272.391	16.47
272.605	16.44
272.819	16.47
273.033	16.5
273.248	16.55
273.462	16.53
273.676	16.59
273.89	16.55
274.104	16.67
274.318	16.72
274.532	16.83
274.746	16.82
274.96	16.78
275.173	16.8
275.387	16.74
275.601	16.72
275.815	16.82
276.029	16.81
276.243	16.85
276.457	16.82
276.671	16.82
276.885	16.76
277.098	16.77
277.312	16.83
277.526	16.72
277.74	16.78
277.954	16.71
278.167	16.6
278.381	16.67
278.595	16.75
278.809	16.82
279.022	16.76
279.236	16.77
279.45	16.76
279.663	16.72
279.877	16.74
280.091	16.7
280.304	16.79
280.518	16.82
280.732	16.68
280.945	16.59
281.159	16.5
281.373	16.46
281.586	16.45
281.8	16.42
282.013	16.49
282.227	16.54
282.44	16.52
282.654	16.48
282.867	16.44
283.081	16.5
283.294	16.47
283.508	16.47
283.721	16.45
283.935	16.44
284.148	16.41
284.362	16.3
284.575	16.24
284.789	16.23
285.002	16.21
285.215	16.23
285.429	16.19
285.642	16.2
285.855	16.21
286.069	16.24
286.282	16.32
286.495	16.4
286.709	16.47
286.922	16.53
287.135	16.65
287.348	16.71
287.562	16.81
287.775	16.93
287.988	17.03
288.201	17.16
288.415	17.31
288.628	17.38
288.841	17.45
289.054	17.52
289.267	17.55
289.48	17.6
289.694	17.68
289.907	17.72
290.12	17.78
290.333	17.89
290.546	17.99
290.759	18.08
290.972	18.17
291.185	18.22
291.398	18.35
291.611	18.54
291.824	18.66
292.037	18.81
292.25	18.97
292.463	19.12
292.676	19.27
292.889	19.32
293.102	19.46
293.315	19.53
293.528	19.68
293.741	19.72
293.954	19.76
294.166	19.83
294.379	19.9
294.592	19.98
294.805	20.03
295.018	20.08
295.231	20.15
295.443	20.19
295.656	20.33
295.869	20.41
296.082	20.46
296.295	20.54
296.507	20.53
296.72	20.57
296.933	20.55
297.145	20.56
297.358	20.55
297.571	20.64
297.783	20.7
297.996	20.68
298.209	20.7
298.421	20.78
298.634	20.81
298.847	20.93
299.059	21.03
299.272	21.22
299.484	21.37
299.697	21.55
299.91	21.59
300.122	21.65
300.335	21.8
300.547	21.85
300.76	21.9
300.972	21.98
301.185	22
301.397	22
301.609	22.03
301.822	22.07
302.034	22.14
302.247	22.19
302.459	22.31
302.672	22.31
302.884	22.41
303.096	22.5
303.309	22.53
303.521	22.56
303.733	22.62
303.946	22.63
304.158	22.7
304.37	22.75
304.583	22.86
304.795	22.88
305.007	22.94
305.219	23.05
305.432	23.09
305.644	23.25
305.856	23.44
306.068	23.55
306.28	23.71
306.493	23.82
306.705	23.81
306.917	23.84
307.129	23.96
307.341	23.97
307.553	23.99
307.765	23.95
307.977	23.99
308.189	23.94
308.402	23.99
308.614	23.98
308.826	23.97
309.038	24.06
309.25	24.1
309.462	24.04
309.674	24.13
309.886	24.12
310.098	24.17
310.31	24.13
310.522	24.25
310.733	24.3
310.945	24.33
311.157	24.39
311.369	24.38
311.581	24.43
311.793	24.47
312.005	24.52
312.217	24.59
312.428	24.69
312.64	24.78
312.852	24.86
313.064	24.87
313.276	24.98
313.487	25.05
313.699	25.2
313.911	25.13
314.123	25.24
314.334	25.28
314.546	25.37
314.758	25.43
314.97	25.4
315.181	25.36
315.393	25.45
315.604	25.45
315.816	25.47
316.028	25.57
316.239	25.71
316.451	25.79
316.663	25.76
316.874	25.74
317.086	25.82
317.297	25.92
317.509	25.85
317.72	25.93
317.932	26
318.143	26.06
318.355	26.11
318.566	26.19
318.778	26.16
318.989	26.23
319.201	26.41
319.412	26.44
319.624	26.6
319.835	26.79
320.046	26.84
320.258	26.81
320.469	26.93
320.68	26.96
320.892	26.99
321.103	27.18
321.314	27.25
321.526	27.27
321.737	27.25
321.948	27.23
322.16	27.24
322.371	27.15
322.582	27.18
322.793	27.15
323.005	27.12
323.216	27.05
323.427	26.95
323.638	26.93
323.849	26.89
324.06	26.84
324.272	26.85
324.483	26.81
324.694	26.84
324.905	26.84
325.116	26.84
325.327	26.89
325.538	26.98
325.749	27.03
325.96	27.09
326.171	27.17
326.382	27.22
326.593	27.23
326.804	27.28
327.015	27.4
327.226	27.54
327.437	27.57
327.648	27.6
327.859	27.69
328.07	27.77
328.281	27.8
328.492	27.79
328.703	27.98
328.914	28.03
329.125	28.06
329.335	28.05
329.546	27.98
329.757	27.98
329.968	28.01
330.179	27.97
330.39	27.97
330.6	27.96
330.811	27.91
331.022	27.88
331.233	27.95
331.443	28.04
331.654	28.08
331.865	28.16
332.075	28.2
332.286	28.15
332.497	28.21
332.707	28.18
332.918	28.34
333.129	28.38
333.339	28.39
333.55	28.39
333.761	28.42
333.971	28.52
334.182	28.52
334.392	28.54
334.603	28.53
334.813	28.46
335.024	28.6
335.234	28.53
335.445	28.54
335.655	28.52
335.866	28.51
336.076	28.52
336.287	28.44
336.497	28.43
336.708	28.45
336.918	28.52
337.128	28.6
337.339	28.55
337.549	28.62
337.759	28.66
337.97	28.7
338.18	28.8
338.39	28.75
338.601	28.81
338.811	28.81
339.021	28.82
339.232	28.86
339.442	28.92
339.652	28.93
339.862	28.94
340.073	29.06
340.283	29.09
340.493	29.05
340.703	29.11
340.913	29.11
341.124	29.12
341.334	29.15
341.544	29.25
341.754	29.25
341.964	29.25
342.174	29.31
342.384	29.31
342.594	29.33
342.804	29.33
343.014	29.45
343.224	29.5
343.435	29.55
343.645	29.5
343.855	29.45
344.065	29.43
344.274	29.46
344.484	29.44
344.694	29.43
344.904	29.44
345.114	29.44
345.324	29.34
345.534	29.29
345.744	29.3
345.954	29.34
346.164	29.28
346.374	29.25
346.583	29.25
346.793	29.26
347.003	29.21
347.213	29.24
347.423	29.31
347.632	29.42
347.842	29.48
348.052	29.54
348.262	29.63
348.471	29.64
348.681	29.69
348.891	29.68
349.1	29.71
349.31	29.77
349.52	29.76
349.729	29.78
349.939	29.77
350.149	29.74
350.358	29.71
350.568	29.69
350.778	29.77
350.987	29.81
351.197	29.92
351.406	29.4
351.616	29.44
351.825	29.53
352.035	29.52
352.244	29.51
352.454	29.56
352.663	29.64
352.873	29.68
353.082	29.7
353.292	29.73
353.501	29.72
353.711	30.23
353.92	30.2
354.129	30.1
354.339	30.07
354.548	30.06
354.757	30.09
354.967	30.06
355.176	29.99
355.385	29.99
355.595	29.97
355.804	29.96
356.013	29.97
356.223	30.02
356.432	30.07
356.641	30.18
356.85	30.16
357.059	30.11
357.269	30.1
357.478	30.22
357.687	30.25
357.896	30.31
358.105	30.35
358.314	30.41
358.524	30.44
358.733	30.46
358.942	30.42
359.151	30.42
359.36	30.54
359.569	30.52
359.778	30.5
359.987	30.51
360.196	30.5
360.405	30.5
360.614	30.42
360.823	30.35
361.032	30.36
361.241	30.36
361.45	30.41
361.659	30.34
361.868	30.38
362.077	30.39
362.286	30.44
362.495	30.43
362.704	30.47
362.912	30.52
363.121	30.58
363.33	30.57
363.539	30.58
363.748	30.61
363.957	30.67
364.165	30.74
364.374	30.77
364.583	30.75
364.792	30.78
365	30.68
365.209	30.68
365.418	30.72
365.626	30.78
365.835	30.82
366.044	30.8
366.253	30.86
366.461	30.85
366.67	30.85
366.878	30.91
367.087	30.91
367.296	31
367.504	31
367.713	31.02
367.921	31.05
368.13	31.07
368.338	31.09
368.547	31.06
368.755	31.06
368.964	31.14
369.172	31.15
369.381	31.24
369.589	31.29
369.798	31.32
370.006	31.37
370.215	31.33
370.423	31.33
370.632	31.39
370.84	31.41
371.048	31.46
371.257	31.42
371.465	31.39
371.673	31.42
371.882	31.47
372.09	31.53
372.298	31.59
372.507	31.62
372.715	31.68
372.923	31.75
373.131	31.74
373.34	31.75
373.548	31.81
373.756	31.88
373.964	31.81
374.172	31.79
374.381	31.84
374.589	31.82
374.797	31.86
375.005	31.85
375.213	31.83
375.421	31.84
375.629	31.82
375.837	31.8
376.045	31.77
376.254	31.82
376.462	31.84
376.67	31.78
376.878	31.7
377.086	31.7
377.294	31.75
377.502	31.75
377.71	31.81
377.918	31.88
378.126	31.83
378.333	31.87
378.541	31.89
378.749	31.88
378.957	31.89
379.165	31.92
379.373	31.92
379.581	31.9
379.789	31.93
379.996	31.93
380.204	31.95
380.412	32.03
380.62	32.03
380.828	32.03
381.035	32.04
381.243	32.11
381.451	32.12
381.659	32.15
381.866	32.18
382.074	32.19
382.282	32.17
382.489	32.09
382.697	32.11
382.905	32.12
383.112	32.13
383.32	32.16
383.528	32.11
383.735	32.12
383.943	32.12
384.15	32.14
384.358	32.12
384.565	32.18
384.773	32.21
384.981	32.23
385.188	32.23
385.396	32.24
385.603	32.24
385.811	32.29
386.018	32.29
386.225	32.26
386.433	32.25
386.64	32.34
386.848	32.33
387.055	32.41
387.263	32.39
387.47	32.43
387.677	32.43
387.885	32.42
388.092	32.42
388.299	32.51
388.507	32.55
388.714	32.57
388.921	32.57
389.128	32.61
389.336	32.63
389.543	32.71
389.75	32.7
389.957	32.71
390.165	32.75
390.372	32.76
390.579	32.75
390.786	32.76
390.993	32.75
391.2	32.72
391.408	32.71
391.615	32.65
391.822	32.64
392.029	32.62
392.236	32.61
392.443	32.65
392.65	32.64
392.857	32.64
393.064	32.69
393.271	32.72
393.478	32.72
393.685	32.75
393.892	32.78
394.099	32.75
394.306	32.81
394.513	32.83
394.72	32.79
394.927	32.79
395.134	32.79
395.341	32.83
395.547	32.86
395.754	32.91
395.961	32.93
396.168	32.98
396.375	33.03
396.582	33.08
396.788	33.15
396.995	33.24
397.202	33.28
397.409	33.31
397.616	33.27
397.822	33.26
398.029	33.26
398.236	33.27
398.442	33.21
398.649	33.21
398.856	33.23
399.062	33.22
399.269	33.19
399.476	33.23
399.682	33.21
399.889	33.25
400.096	33.3
400.302	33.3
400.509	33.31
400.715	33.38
400.922	33.42
401.128	33.36
401.335	33.36
401.541	33.4
401.748	33.41
401.954	33.47
402.161	33.46
402.367	33.46
402.574	33.48
402.78	33.49
402.986	33.51
403.193	33.5
403.399	33.56
403.606	33.6
403.812	33.6
404.018	33.65
404.225	33.67
404.431	33.69
404.637	33.71
404.844	33.73
405.05	33.77
405.256	33.78
405.462	33.79
405.669	33.8
405.875	33.82
406.081	33.82
406.287	33.83
406.494	33.85
406.7	33.83
406.906	33.85
407.112	33.87
407.318	33.88
407.524	33.9
407.73	33.94
407.937	33.98
408.143	33.98
408.349	34.04
408.555	34.05
408.761	34.04
408.967	34.14
409.173	34.14
409.379	34.17
409.585	34.15
409.791	34.14
409.997	34.16
410.203	34.13
410.409	34.1
410.615	34.1
410.821	34.09
411.027	34.14
411.233	34.15
411.438	34.2
411.644	34.19
411.85	34.24
412.056	34.24
412.262	34.28
412.468	34.35
412.673	34.4
412.879	34.43
413.085	34.46
413.291	34.47
413.497	34.48
413.702	34.48
413.908	34.51
414.114	34.54
414.319	34.58
414.525	34.56
414.731	34.6
414.937	34.66
415.142	34.7
415.348	34.76
415.553	34.78
415.759	34.78
415.965	34.77
416.17	34.81
416.376	34.82
416.581	34.87
416.787	34.87
416.992	34.85
417.198	34.83
417.404	34.8
417.609	34.81
417.815	34.78
418.02	34.77
418.225	34.78
418.431	34.78
418.636	34.79
418.842	34.78
419.047	34.78
419.253	34.82
419.458	34.82
419.663	34.83
419.869	34.81
420.074	34.85
420.279	34.88
420.485	34.89
420.69	34.89
420.895	34.89
421.101	34.91
421.306	34.95
421.511	34.92
421.716	34.95
421.922	34.99
422.127	35.02
422.332	35.03
422.537	35.03
422.742	35.05
422.947	35.06
423.153	35.07
423.358	35.07
423.563	35.1
423.768	35.13
423.973	35.14
424.178	35.14
424.383	35.15
424.588	35.16
424.793	35.19
424.998	35.23
425.203	35.26
425.408	35.29
425.613	35.31
425.818	35.32
426.023	35.35
426.228	35.38
426.433	35.44
426.638	35.49
426.843	35.55
427.048	35.6
427.253	35.62
427.458	35.68
427.663	35.7
427.867	35.76
428.072	35.79
428.277	35.82
428.482	35.83
428.687	35.83
428.892	35.86
429.096	35.86
429.301	35.83
429.506	35.84
429.711	35.88
429.915	35.9
430.12	35.92
430.325	35.92
430.529	35.94
430.734	35.96
430.939	35.97
431.143	35.96
431.348	35.95
431.553	35.98
431.757	35.97
431.962	35.93
432.166	35.94
432.371	35.93
432.575	35.96
432.78	35.97
432.984	35.95
433.189	35.97
433.394	35.99
433.598	36.01
433.802	36.03
434.007	36.07
434.211	36.08
434.416	36.1
434.62	36.15
434.825	36.17
435.029	36.18
435.233	36.24
435.438	36.26
435.642	36.27
435.846	36.32
436.051	36.36
436.255	36.41
436.459	36.42
436.664	36.42
436.868	36.42
437.072	36.43
437.276	36.44
437.481	36.44
437.685	36.44
437.889	36.43
438.093	36.41
438.298	36.42
438.502	36.41
438.706	36.43
438.91	36.49
439.114	36.48
439.318	36.48
439.522	36.47
439.726	36.48
439.931	36.51
440.135	36.55
440.339	36.57
440.543	36.57
440.747	36.59
440.951	36.59
441.155	36.58
441.359	36.6
441.563	36.62
441.767	36.67
441.971	36.7
442.175	36.72
442.378	36.74
442.582	36.76
442.786	36.79
442.99	36.83
443.194	36.86
443.398	36.9
443.602	36.92
443.806	36.96
444.009	36.97
444.213	37
444.417	37.01
444.621	37.02
444.825	37.03
445.028	37.02
445.232	37.03
445.436	37.01
445.639	37.02
445.843	37.01
446.047	37.02
446.251	37.03
446.454	37.02
446.658	36.99
446.861	37.01
447.065	37.01
447.269	37.04
447.472	37.07
447.676	37.11
447.879	37.13
448.083	37.17
448.287	37.18
448.49	37.18
448.694	37.2
448.897	37.24
449.101	37.25
449.304	37.28
449.507	37.29
449.711	37.3
449.914	37.31
450.118	37.36
450.321	37.39
450.525	37.42
450.728	37.48
450.931	37.53
451.135	37.56
451.338	37.58
451.541	37.61
451.745	37.64
451.948	37.61
452.151	37.64
452.355	37.65
452.558	37.64
452.761	37.68
452.964	37.71
453.168	37.72
453.371	37.76
453.574	37.8
453.777	37.82
453.98	37.82
454.183	37.9
454.387	37.92
454.59	37.95
454.793	37.98
454.996	38
455.199	38.03
455.402	38.03
455.605	38.02
455.808	38.03
456.011	38.06
456.214	38.11
456.417	38.12
456.62	38.13
456.823	38.13
457.026	38.13
457.229	38.14
457.432	38.13
457.635	38.15
457.838	38.19
458.041	38.19
458.244	38.18
458.447	38.2
458.65	38.19
458.852	38.15
459.055	38.15
459.258	38.16
459.461	38.15
459.664	38.17
459.867	38.15
460.069	38.16
460.272	38.18
460.475	38.18
460.678	38.2
460.88	38.19
461.083	38.25
461.286	38.25
461.488	38.26
461.691	38.28
461.894	38.3
462.096	38.36
462.299	38.37
462.502	38.39
462.704	38.43
462.907	38.45
463.109	38.51
463.312	38.52
463.514	38.59
463.717	38.63
463.92	38.66
464.122	38.65
464.325	38.65
464.527	38.7
464.729	38.73
464.932	38.74
465.134	38.77
465.337	38.77
465.539	38.77
465.742	38.77
465.944	38.77
466.146	38.79
466.349	38.86
466.551	38.92
466.753	38.93
466.956	38.96
467.158	38.99
467.36	39
467.563	39.02
467.765	39.07
467.967	39.06
468.169	39.1
468.372	39.11
468.574	39.09
468.776	39.06
468.978	39.09
469.18	39.1
469.383	39.11
469.585	39.15
469.787	39.18
469.989	39.21
470.191	39.27
470.393	39.31
470.595	39.37
470.797	39.41
470.999	39.5
471.201	39.52
471.403	39.54
471.606	39.56
471.808	39.57
472.009	39.59
472.211	39.61
472.413	39.64
472.615	39.69
472.817	39.69
473.019	39.7
473.221	39.72
473.423	39.74
473.625	39.73
473.827	39.78
474.029	39.81
474.231	39.83
474.432	39.85
474.634	39.84
474.836	39.82
475.038	39.81
475.24	39.8
475.441	39.78
475.643	39.78
475.845	39.81
476.046	39.82
476.248	39.78
476.45	39.79
476.652	39.82
476.853	39.84
477.055	39.89
477.257	39.93
477.458	39.97
477.66	40
477.861	40.02
478.063	40.06
478.265	40.06
478.466	40.13
478.668	40.16
478.869	40.15
479.071	40.15
479.272	40.13
479.474	40.13
479.675	40.13
479.877	40.14
480.078	40.17
480.28	40.19
480.481	40.21
480.682	40.18
480.884	40.18
481.085	40.15
481.287	40.16
481.488	40.18
481.689	40.18
481.891	40.2
482.092	40.16
482.293	40.12
482.495	40.07
482.696	40.09
482.897	40.15
483.098	40.25
483.3	40.33
483.501	40.4
483.702	40.46
483.903	40.52
484.104	40.55
484.306	40.59
484.507	40.63
484.708	40.67
484.909	40.7
485.11	40.72
485.311	40.69
485.512	40.67
485.713	40.65
485.914	40.61
486.116	40.58
486.317	40.56
486.518	40.57
486.719	40.57
486.92	40.59
487.121	40.62
487.322	40.65
487.523	40.69
487.723	40.72
487.924	40.76
488.125	40.8
488.326	40.82
488.527	40.86
488.728	40.89
488.929	40.9
489.13	40.92
489.331	40.92
489.531	40.94
489.732	40.95
489.933	40.95
490.134	40.94
490.335	40.97
490.535	40.98
490.736	41.01
490.937	41.03
491.137	41.07
491.338	41.1
491.539	41.13
491.74	41.13
491.94	41.17
492.141	41.19
492.341	41.21
492.542	41.23
492.743	41.27
492.943	41.29
493.144	41.32
493.344	41.35
493.545	41.38
493.746	41.41
493.946	41.45
494.147	41.46
494.347	41.52
494.548	41.58
494.748	41.61
494.949	41.62
495.149	41.61
495.349	41.64
495.55	41.64
495.75	41.65
495.951	41.68
496.151	41.73
496.351	41.74
496.552	41.72
496.752	41.73
496.952	41.74
497.153	41.77
497.353	41.81
497.553	41.82
497.754	41.84
497.954	41.87
498.154	41.89
498.354	41.89
498.554	41.94
498.755	41.98
498.955	42.01
499.155	42.04
499.355	42.08
499.555	42.08
499.755	42.1
499.956	42.13
500.156	42.14
500.356	42.15
500.556	42.17
500.756	42.2
500.956	42.19
501.156	42.2
501.356	42.22
501.556	42.24
501.756	42.26
501.956	42.27
502.156	42.28
502.356	42.32
502.556	42.34
502.756	42.38
502.956	42.37
503.156	42.4
503.356	42.43
503.555	42.43
503.755	42.46
503.955	42.48
504.155	42.56
504.355	42.58
504.555	42.58
504.754	42.6
504.954	42.6
505.154	42.66
505.354	42.68
505.553	42.71
505.753	42.74
505.953	42.75
506.153	42.79
506.352	42.78
506.552	42.8
506.752	42.83
506.951	42.85
507.151	42.89
507.351	42.89
507.55	42.91
507.75	42.94
507.949	42.93
508.149	42.98
508.348	42.99
508.548	43
508.747	43.03
508.947	43.06
509.146	43.09
509.346	43.09
509.545	43.1
509.745	43.14
509.944	43.15
510.144	43.19
510.343	43.17
510.543	43.2
510.742	43.22
510.941	43.24
511.141	43.27
511.34	43.27
511.539	43.3
511.739	43.33
511.938	43.32
512.137	43.32
512.337	43.33
512.536	43.4
512.735	43.4
512.934	43.42
513.134	43.42
513.333	43.45
513.532	43.48
513.731	43.49
513.93	43.49
514.129	43.52
514.329	43.56
514.528	43.58
514.727	43.6
514.926	43.63
515.125	43.65
515.324	43.7
515.523	43.71
515.722	43.71
515.921	43.73
516.12	43.8
516.319	43.81
516.518	43.85
516.717	43.84
516.916	43.84
517.115	43.85
517.314	43.87
517.513	43.87
517.712	43.85
517.911	43.89
518.11	43.92
518.309	43.94
518.507	43.97
518.706	43.97
518.905	44.01
519.104	44.03
519.303	44.07
519.501	44.08
519.7	44.11
519.899	44.17
520.098	44.18
520.296	44.21
520.495	44.23
520.694	44.26
520.893	44.29
521.091	44.32
521.29	44.33
521.489	44.39
521.687	44.43
521.886	44.45
522.084	44.48
522.283	44.51
522.482	44.53
522.68	44.55
522.879	44.54
523.077	44.6
523.276	44.6
523.474	44.59
523.673	44.58
523.871	44.61
524.07	44.64
524.268	44.67
524.467	44.68
524.665	44.7
524.863	44.75
525.062	44.78
525.26	44.79
525.459	44.81
525.657	44.85
525.855	44.85
526.054	44.87
526.252	44.87
526.45	44.9
526.649	44.9
526.847	44.92
527.045	44.91
527.243	44.91
527.442	44.93
527.64	45
527.838	45.06
528.036	45.12
528.234	45.19
528.433	45.24
528.631	45.28
528.829	45.32
529.027	45.36
529.225	45.4
529.423	45.45
529.621	45.49
529.819	45.51
530.017	45.53
530.215	45.54
530.414	45.52
530.612	45.53
530.81	45.52
531.008	45.55
531.206	45.56
531.403	45.59
531.601	45.59
531.799	45.6
531.997	45.61
532.195	45.61
532.393	45.62
532.591	45.66
532.789	45.68
532.987	45.72
533.184	45.73
533.382	45.77
533.58	45.78
533.778	45.81
533.976	45.84
534.173	45.88
534.371	45.93
534.569	45.97
534.767	46
534.964	45.99
535.162	45.99
535.36	46.03
535.557	46.03
535.755	46.05
535.953	46.07
536.15	46.1
536.348	46.12
536.546	46.14
536.743	46.16
536.941	46.21
537.138	46.24
537.336	46.27
537.533	46.29
537.731	46.32
537.928	46.35
538.126	46.37
538.323	46.41
538.521	46.43
538.718	46.45
538.916	46.5
539.113	46.51
539.311	46.56
539.508	46.59
539.705	46.6
539.903	46.59
540.1	46.6
540.297	46.6
540.495	46.61
540.692	46.64
540.889	46.69
541.087	46.72
541.284	46.76
541.481	46.79
541.678	46.83
541.876	46.85
542.073	46.9
542.27	46.93
542.467	46.97
542.664	47
542.862	47.05
543.059	47.08
543.256	47.1
543.453	47.08
543.65	47.11
543.847	47.12
544.044	47.17
544.241	47.19
544.438	47.2
544.635	47.24
544.832	47.26
545.029	47.27
545.226	47.27
545.423	47.29
545.62	47.33
545.817	47.34
546.014	47.36
546.211	47.37
546.408	47.4
546.605	47.44
546.802	47.48
546.999	47.51
547.196	47.52
547.392	47.58
547.589	47.6
547.786	47.63
547.983	47.66
548.18	47.7
548.376	47.74
548.573	47.78
548.77	47.8
548.967	47.81
549.163	47.86
549.36	47.91
549.557	47.92
549.753	47.96
549.95	48
550.147	48.06
550.343	48.07
550.54	48.08
550.737	48.11
550.933	48.13
551.13	48.17
551.326	48.18
551.523	48.21
551.719	48.22
551.916	48.22
552.112	48.24
552.309	48.24
552.505	48.29
552.702	48.36
552.898	48.4
553.095	48.46
553.291	48.5
553.487	48.54
553.684	48.54
553.88	48.56
554.077	48.63
554.273	48.67
554.469	48.73
554.666	48.76
554.862	48.76
555.058	48.8
555.255	48.82
555.451	48.82
555.647	48.83
555.843	48.87
556.039	48.92
556.236	48.95
556.432	48.99
556.628	48.99
556.824	49
557.02	49.03
557.217	49.06
557.413	49.09
557.609	49.12
557.805	49.16
558.001	49.17
558.197	49.23
558.393	49.25
558.589	49.27
558.785	49.28
558.981	49.33
559.177	49.34
559.373	49.33
559.569	49.35
559.765	49.39
559.961	49.43
560.157	49.46
560.353	49.46
560.549	49.46
560.745	49.46
560.941	49.5
561.136	49.47
561.332	49.5
561.528	49.55
561.724	49.58
561.92	49.61
562.116	49.6
562.311	49.65
562.507	49.68
562.703	49.74
562.899	49.79
563.094	49.83
563.29	49.88
563.486	49.88
563.681	49.91
563.877	49.94
564.073	49.97
564.268	49.99
564.464	50
564.66	50.01
564.855	49.95
565.051	49.97
565.246	49.97
565.442	50.02
565.637	50.07
565.833	50.07
566.028	50.07
566.224	50.09
566.419	50.11
566.615	50.13
566.81	50.15
567.006	50.21
567.201	50.24
567.397	50.28
567.592	50.29
567.787	50.32
567.983	50.34
568.178	50.38
568.373	50.39
568.569	50.43
568.764	50.45
568.959	50.48
569.155	50.51
569.35	50.53
569.545	50.56
569.74	50.59
569.936	50.62
570.131	50.69
570.326	50.73
570.521	50.77
570.716	50.81
570.912	50.83
571.107	50.86
571.302	50.87
571.497	50.9
571.692	50.92
571.887	50.92
572.082	50.96
572.277	50.95
572.472	50.97
572.667	50.97
572.862	50.98
573.057	51
573.252	51.05
573.447	51.1
573.642	51.1
573.837	51.1
574.032	51.09
574.227	51.1
574.422	51.1
574.617	51.12
574.812	51.17
575.007	51.19
575.202	51.2
575.396	51.21
575.591	51.21
575.786	51.26
575.981	51.3
576.176	51.36
576.37	51.38
576.565	51.43
576.76	51.45
576.955	51.47
577.149	51.52
577.344	51.57
577.539	51.62
577.733	51.66
577.928	51.68
578.123	51.74
578.317	51.79
578.512	51.8
578.706	51.83
578.901	51.87
579.096	51.91
579.29	51.93
579.485	51.94
579.679	51.93
579.874	51.96
580.068	51.99
580.263	52.01
580.457	52.03
580.652	52.06
580.846	52.08
581.04	52.12
581.235	52.13
581.429	52.15
581.624	52.18
581.818	52.21
582.012	52.27
582.207	52.29
582.401	52.32
582.595	52.31
582.79	52.37
582.984	52.39
583.178	52.42
583.372	52.45
583.567	52.43
583.761	52.44
583.955	52.51
584.149	52.51
584.344	52.52
584.538	52.54
584.732	52.59
584.926	52.58
585.12	52.63
585.314	52.64
585.508	52.67
585.702	52.7
585.896	52.79
586.091	52.81
586.285	52.82
586.479	52.84
586.673	52.9
586.867	52.92
587.061	52.94
587.255	52.93
587.449	52.94
587.642	52.95
587.836	53.02
588.03	52.98
588.224	52.99
588.418	52.98
588.612	53.04
588.806	53.02
589	53.05
589.193	53.08
589.387	53.09
589.581	53.16
589.775	53.22
589.969	53.23
590.162	53.24
590.356	53.26
590.55	53.32
590.744	53.32
590.937	53.33
591.131	53.38
591.325	53.42
591.518	53.45
591.712	53.49
591.906	53.52
592.099	53.5
592.293	53.57
592.486	53.66
592.68	53.7
592.874	53.72
593.067	53.74
593.261	53.72
593.454	53.77
593.648	53.85
593.841	53.82
594.035	53.82
594.228	53.87
594.421	53.87
594.615	53.85
594.808	53.85
595.002	53.9
595.195	53.96
595.388	54
595.582	53.98
595.775	53.98
595.968	53.98
596.162	53.98
596.355	54.02
596.548	54.03
596.742	54.05
596.935	54.09
597.128	54.07
597.321	54.06
597.515	54.11
597.708	54.14
597.901	54.15
598.094	54.16
598.287	54.22
598.48	54.23
598.674	54.29
598.867	54.31
599.06	54.34
599.253	54.42
599.446	54.5
599.639	54.47
599.832	54.47
600.025	54.49
600.218	54.56
600.411	54.6
600.604	54.63
600.797	54.63
600.99	54.65
601.183	54.68
601.376	54.66
601.569	54.62
601.762	54.66
601.955	54.7
602.147	54.73
602.34	54.76
602.533	54.72
602.726	54.72
602.919	54.76
603.112	54.76
603.304	54.71
603.497	54.77
603.69	54.83
603.883	54.86
604.075	54.85
604.268	54.89
604.461	54.91
604.654	54.93
604.846	54.94
605.039	54.97
605.231	55
605.424	55.08
605.617	55.1
605.809	55.11
606.002	55.14
606.194	55.19
606.387	55.21
606.58	55.26
606.772	55.3
606.965	55.33
607.157	55.33
607.35	55.34
607.542	55.34
607.735	55.37
607.927	55.37
608.119	55.39
608.312	55.4
608.504	55.43
608.697	55.44
608.889	55.43
609.081	55.49
609.274	55.5
609.466	55.53
609.658	55.54
609.851	55.53
610.043	55.54
610.235	55.57
610.427	55.61
610.62	55.66
610.812	55.69
611.004	55.75
611.196	55.75
611.388	55.78
611.581	55.82
611.773	55.85
611.965	55.91
612.157	55.98
612.349	56.04
612.541	56.03
612.733	56
612.925	56
613.117	56.04
613.309	56.09
613.501	56.15
613.693	56.17
613.885	56.21
614.077	56.21
614.269	56.19
614.461	56.16
614.653	56.19
614.845	56.19
615.037	56.24
615.229	56.23
615.421	56.23
615.613	56.18
615.805	56.2
615.996	56.2
616.188	56.24
616.38	56.32
616.572	56.37
616.764	56.39
616.955	56.47
617.147	56.45
617.339	56.52
617.531	56.54
617.722	56.62
617.914	56.65
618.106	56.69
618.297	56.71
618.489	56.71
618.681	56.73
618.872	56.82
619.064	56.85
619.255	56.89
619.447	56.88
619.639	56.93
619.83	56.97
620.022	56.95
620.213	56.99
620.405	56.98
620.596	56.99
620.788	56.96
620.979	56.97
621.171	56.96
621.362	56.99
621.553	57.02
621.745	57.01
621.936	57.04
622.128	57.11
622.319	57.14
622.51	57.2
622.702	57.22
622.893	57.32
623.084	57.3
623.276	57.35
623.467	57.4
623.658	57.43
623.849	57.49
624.041	57.46
624.232	57.4
624.423	57.4
624.614	57.39
624.805	57.44
624.996	57.39
625.188	57.43
625.379	57.43
625.57	57.44
625.761	57.44
625.952	57.4
626.143	57.45
626.334	57.47
626.525	57.42
626.716	57.47
626.907	57.48
627.098	57.54
627.289	57.57
627.48	57.59
627.671	57.59
627.862	57.62
628.053	57.67
628.244	57.71
628.435	57.76
628.626	57.86
628.816	57.86
629.007	57.83
629.198	57.85
629.389	57.83
629.58	57.84
629.771	57.85
629.961	57.91
630.152	57.93
630.343	57.9
630.534	57.94
630.724	57.97
630.915	58.01
631.106	58.13
631.296	58.14
631.487	58.15
631.678	58.18
631.868	58.21
632.059	58.22
632.25	58.22
632.44	58.23
632.631	58.25
632.821	58.23
633.012	58.23
633.202	58.2
633.393	58.24
633.583	58.33
633.774	58.36
633.964	58.39
634.155	58.38
634.345	58.45
634.536	58.48
634.726	58.53
634.916	58.6
635.107	58.61
635.297	58.62
635.488	58.63
635.678	58.63
635.868	58.63
636.059	58.68
636.249	58.74
636.439	58.77
636.629	58.83
636.82	58.82
637.01	58.78
637.2	58.83
637.39	58.86
637.581	58.87
637.771	58.89
637.961	58.9
638.151	58.9
638.341	58.89
638.531	58.88
638.721	58.92
638.911	58.95
639.102	59.02
639.292	59.03
639.482	59.04
639.672	59.02
639.862	59.07
640.052	59.11
640.242	59.16
640.432	59.2
640.622	59.25
640.812	59.25
641.002	59.24
641.191	59.22
641.381	59.23
641.571	59.26
641.761	59.3
641.951	59.27
642.141	59.28
642.331	59.26
642.52	59.26
642.71	59.24
642.9	59.3
643.09	59.38
643.28	59.39
643.469	59.43
643.659	59.41
643.849	59.42
644.038	59.47
644.228	59.48
644.418	59.52
644.607	59.55
644.797	59.62
644.987	59.64
645.176	59.62
645.366	59.66
645.556	59.67
645.745	59.74
645.935	59.75
646.124	59.76
646.314	59.81
646.503	59.8
646.693	59.79
646.882	59.78
647.072	59.75
647.261	59.72
647.45	59.77
647.64	59.78
647.829	59.81
648.019	59.87
648.208	59.91
648.397	59.89
648.587	59.92
648.776	59.9
648.965	59.91
649.155	59.96
649.344	60.06
649.533	60.13
649.723	60.12
649.912	60.14
650.101	60.16
650.29	60.13
650.479	60.21
650.669	60.24
650.858	60.31
651.047	60.35
651.236	60.33
651.425	60.3
651.614	60.24
651.803	60.28
651.992	60.26
652.182	60.26
652.371	60.31
652.56	60.3
652.749	60.3
652.938	60.29
653.127	60.27
653.316	60.36
653.505	60.37
653.694	60.4
653.882	60.39
654.071	60.43
654.26	60.47
654.449	60.49
654.638	60.5
654.827	60.52
655.016	60.58
655.205	60.63
655.393	60.58
655.582	60.58
655.771	60.53
655.96	60.6
656.149	60.59
656.337	60.56
656.526	60.54
656.715	60.57
656.903	60.61
657.092	60.63
657.281	60.59
657.469	60.61
657.658	60.64
657.847	60.66
658.035	60.62
658.224	60.6
658.412	60.62
658.601	60.67
658.79	60.61
658.978	60.57
659.167	60.55
659.355	60.59
659.544	60.6
659.732	60.63
659.921	60.68
660.109	60.7
660.297	60.74
660.486	60.85
660.674	60.84
660.863	60.93
661.051	60.98
661.239	61.02
661.428	61.09
661.616	61.09
661.804	61.06
661.993	61.07
662.181	61.12
662.369	61.18
662.557	61.12
662.746	61.15
662.934	61.16
663.122	61.18
663.31	61.19
663.498	61.15
663.687	61.2
663.875	61.24
664.063	61.32
664.251	61.39
664.439	61.36
664.627	61.36
664.815	61.36
665.003	61.39
665.191	61.42
665.379	61.45
665.567	61.46
665.755	61.51
665.943	61.5
666.131	61.54
666.319	61.52
666.507	61.56
666.695	61.57
666.883	61.53
667.071	61.51
667.259	61.57
667.447	61.56
667.635	61.59
667.823	61.62
668.01	61.69
668.198	61.61
668.386	61.6
668.574	61.61
668.761	61.63
668.949	61.67
669.137	61.73
669.325	61.7
669.512	61.76
669.7	61.77
669.888	61.79
670.075	61.79
670.263	61.89
670.451	61.92
670.638	61.99
670.826	61.99
671.013	62.03
671.201	62.04
671.389	62.07
671.576	62.05
671.764	62.08
671.951	62.06
672.139	62.17
672.326	62.16
672.514	62.18
672.701	62.15
672.889	62.22
673.076	62.28
673.263	62.27
673.451	62.26
673.638	62.24
673.825	62.28
674.013	62.29
674.2	62.19
674.387	62.18
674.575	62.15
674.762	62.1
674.949	62.1
675.137	62.05
675.324	62.07
675.511	62.11
675.698	62.19
675.885	62.11
676.073	62.08
676.26	62.13
676.447	62.19
676.634	62.31
676.821	62.39
677.008	62.37
677.195	62.42
677.383	62.48
677.57	62.49
677.757	62.44
677.944	62.55
678.131	62.59
678.318	62.56
678.505	62.54
678.692	62.47
678.879	62.45
679.066	62.49
679.253	62.47
679.439	62.45
679.626	62.45
679.813	62.42
680	62.37
680.187	62.36
680.374	62.42
680.561	62.46
680.747	62.54
680.934	62.57
681.121	62.54
681.308	62.54
681.494	62.53
681.681	62.55
681.868	62.6
682.055	62.62
682.241	62.68
682.428	62.7
682.615	62.71
682.801	62.63
682.988	62.65
683.175	62.7
683.361	62.73
683.548	62.8
683.734	62.83
683.921	62.85
684.107	62.87
684.294	62.91
684.48	62.89
684.667	62.83
684.853	62.91
685.04	62.9
685.226	62.9
685.413	62.91
685.599	62.87
685.786	62.83
685.972	62.86
686.158	62.86
686.345	62.79
686.531	62.83
686.717	62.87
686.904	62.82
687.09	62.89
687.276	62.93
687.463	62.92
687.649	62.98
687.835	63.01
688.021	63.08
688.208	63.09
688.394	63.15
688.58	63.14
688.766	63.16
688.952	63.19
689.138	63.13
689.324	63.17
689.511	63.2
689.697	63.17
689.883	63.2
690.069	63.11
690.255	63.21
690.441	63.24
690.627	63.23
690.813	63.21
690.999	63.28
691.185	63.37
691.371	63.35
691.557	63.35
691.743	63.35
691.929	63.38
692.115	63.41
692.3	63.36
692.486	63.44
692.672	63.44
692.858	63.57
693.044	63.51
693.23	63.54
693.415	63.61
693.601	63.65
693.787	63.75
693.973	63.8
694.158	63.9
694.344	63.92
694.53	63.91
694.715	63.97
694.901	63.93
695.087	63.96
695.272	63.86
695.458	63.77
695.644	63.78
695.829	63.65
696.015	63.63
696.2	63.56
696.386	63.55
696.571	63.55
696.757	63.57
696.943	63.58
697.128	63.59
697.313	63.61
697.499	63.63
697.684	63.62
697.87	63.63
698.055	63.58
698.241	63.58
698.426	63.6
698.611	63.55
698.797	63.57
698.982	63.53
699.167	63.55
699.353	63.59
699.538	63.58
699.723	63.62
699.909	63.66
700.094	63.72
700.279	63.71
700.464	63.74
700.649	63.78
700.835	63.8
701.02	63.89
701.205	63.93
701.39	63.94
701.575	64.05
701.76	64.03
701.945	64.13
702.13	64.13
702.316	64.22
702.501	64.18
702.686	64.22
702.871	64.26
703.056	64.22
703.241	64.22
703.426	64.28
703.611	64.3
703.796	64.39
703.98	64.34
704.165	64.38
704.35	64.44
704.535	64.48
704.72	64.39
704.905	64.31
705.09	64.38
705.275	64.42
705.459	64.42
705.644	64.43
705.829	64.36
706.014	64.43
706.198	64.44
706.383	64.38
706.568	64.45
706.753	64.56
706.937	64.59
707.122	64.53
707.307	64.46
707.491	64.45
707.676	64.37
707.86	64.52
708.045	64.53
708.23	64.59
708.414	64.65
708.599	64.61
708.783	64.61
708.968	64.72
709.152	64.8
709.337	64.87
709.521	64.88
709.706	65.01
709.89	64.91
710.075	64.87
710.259	64.84
710.443	64.84
710.628	64.82
710.812	64.82
710.997	64.83
711.181	64.84
711.365	64.77
711.55	64.77
711.734	64.69
711.918	64.66
712.102	64.69
712.287	64.72
712.471	64.76
712.655	64.82
712.839	64.76
713.023	64.71
713.208	64.73
713.392	64.84
713.576	64.85
713.76	64.92
713.944	64.97
714.128	65
714.312	65
714.496	64.99
714.68	64.92
714.864	65.04
715.048	65.1
715.232	65.03
715.416	64.98
715.6	65
715.784	65
715.968	65.03
716.152	64.97
716.336	65.02
716.52	65.01
716.704	65.03
716.888	65
717.072	64.97
717.256	65.02
717.439	65.06
717.623	65.1
717.807	65.07
717.991	65.1
718.174	65.13
718.358	65.09
718.542	65.06
718.726	65.17
718.909	65.14
719.093	65.18
719.277	65.14
719.46	65.18
719.644	65.17
719.828	65.22
720.011	65.19
720.195	65.26
720.378	65.29
720.562	65.42
720.746	65.43
720.929	65.53
721.113	65.57
721.296	65.64
721.48	65.66
721.663	65.75
721.846	65.72
722.03	65.8
722.213	65.74
722.397	65.76
722.58	65.69
722.764	65.6
722.947	65.61
723.13	65.53
723.314	65.58
723.497	65.61
723.68	65.49
723.863	65.51
724.047	65.49
724.23	65.58
724.413	65.62
724.596	65.63
724.78	65.66
724.963	65.63
725.146	65.64
725.329	65.55
725.512	65.52
725.695	65.58
725.879	65.7
726.062	65.7
726.245	65.65
726.428	65.61
726.611	65.69
726.794	65.67
726.977	65.6
727.16	65.62
727.343	65.68
727.526	65.78
727.709	65.82
727.892	65.82
728.075	65.84
728.258	65.87
728.441	65.89
728.624	65.8
728.806	65.79
728.989	65.87
729.172	65.91
729.355	65.93
729.538	65.86
729.721	65.78
729.903	65.68
730.086	65.7
730.269	65.65
730.452	65.71
730.634	65.75
730.817	65.86
731	65.84
731.182	65.83
731.365	65.73
731.548	65.72
731.73	65.72
731.913	65.76
732.095	65.71
732.278	65.76
732.461	65.74
732.643	65.75
732.826	65.72
733.008	65.77
733.191	65.77
733.373	65.83
733.556	65.91
733.738	66
733.921	65.96
734.103	66
734.285	66.04
734.468	66.02
734.65	66.04
734.833	66.13
735.015	66.14
735.197	66.21
735.38	66.32
735.562	66.27
735.744	66.2
735.926	66.3
736.109	66.31
736.291	66.33
736.473	66.43
736.655	66.45
736.838	66.46
737.02	66.47
737.202	66.41
737.384	66.33
737.566	66.47
737.748	66.6
737.93	66.6
738.113	66.66
738.295	66.64
738.477	66.51
738.659	66.52
738.841	66.49
739.023	66.41
739.205	66.52
739.387	66.58
739.569	66.48
739.751	66.46
739.933	66.47
740.114	66.45
740.296	66.52
740.478	66.62
740.66	66.69
740.842	66.7
741.024	66.84
741.206	66.77
741.387	66.77
741.569	66.85
741.751	66.87
741.933	66.91
742.115	67.02
742.296	67.02
742.478	66.96
742.66	67
742.841	67
743.023	66.92
743.205	67.02
743.386	67.02
743.568	67.02
743.75	67.02
743.931	66.92
744.113	66.85
744.294	66.8
744.476	66.88
744.657	66.89
744.839	67.06
745.02	67.05
745.202	67.06
745.383	67.09
745.565	66.96
745.746	66.94
745.928	66.97
746.109	67.05
746.291	67.17
746.472	67.16
746.653	67.11
746.835	66.98
747.016	67.04
747.197	67.06
747.379	67.12
747.56	67.21
747.741	67.14
747.922	67.17
748.104	67.19
748.285	67.18
748.466	67.17
748.647	67.19
748.828	67.22
749.01	67.29
749.191	67.27
749.372	67.22
749.553	67.27
749.734	67.44
749.915	67.53
750.096	67.47
750.277	67.35
750.458	67.39
750.639	67.35
750.82	67.36
751.001	67.41
751.182	67.38
751.363	67.38
751.544	67.46
751.725	67.33
751.906	67.32
752.087	67.35
752.268	67.56
752.449	67.53
752.63	67.54
752.81	67.54
752.991	67.48
753.172	67.54
753.353	67.45
753.534	67.42
753.714	67.6
753.895	67.53
754.076	67.48
754.256	67.45
754.437	67.56
754.618	67.65
754.798	67.6
754.979	67.56
755.16	67.53
755.34	67.67
755.521	67.64
755.702	67.56
755.882	67.61
756.063	67.73
756.243	67.67
756.424	67.65
756.604	67.57
756.785	67.65
756.965	67.66
757.146	67.7
757.326	67.72
757.507	67.82
757.687	67.85
757.867	67.91
758.048	67.94
758.228	68.01
758.408	67.98
758.589	68.15
758.769	68.15
758.949	68.11
759.13	68.16
759.31	68.19
759.49	68.09
759.671	68.05
759.851	67.97
760.031	67.85
760.211	67.75
760.391	67.8
760.572	67.72
760.752	67.7
760.932	67.88
761.112	67.83
761.292	67.75
761.472	67.79
761.652	67.78
761.832	67.84
762.012	67.91
762.192	67.83
762.372	67.83
762.552	67.79
762.732	67.67
762.912	67.63
763.092	67.52
763.272	67.6
763.452	67.54
763.632	67.61
763.812	67.61
763.992	67.57
764.172	67.59
764.351	67.65
764.531	67.7
764.711	67.78
764.891	67.8
765.071	67.84
765.25	67.86
765.43	67.9
765.61	67.84
765.79	67.82
765.969	67.9
766.149	67.99
766.329	68
766.508	68.03
766.688	68.07
766.867	68.13
767.047	68.32
767.227	68.35
767.406	68.36
767.586	68.44
767.765	68.48
767.945	68.51
768.124	68.61
768.304	68.48
768.483	68.34
768.663	68.3
768.842	68.23
769.022	68.14
769.201	67.98
769.38	68.13
769.56	68.26
769.739	68.23
769.919	68.08
770.098	68.02
770.277	68
770.457	68.08
770.636	68.2
770.815	68.15
770.994	68.24
771.174	68.24
771.353	68.17
771.532	68.08
771.711	68.21
771.89	68.29
772.07	68.33
772.249	68.41
772.428	68.52
772.607	68.47
772.786	68.59
772.965	68.53
773.144	68.54
773.323	68.61
773.502	68.56
773.681	68.58
773.86	68.63
774.039	68.79
774.218	68.74
774.397	68.62
774.576	68.67
774.755	68.69
774.934	68.76
775.113	68.86
775.292	68.95
775.471	69.01
775.65	69.06
775.828	69.16
776.007	68.94
776.186	69.07
776.365	69.13
776.544	69
776.722	68.99
776.901	68.88
777.08	68.91
777.258	68.74
777.437	68.84
777.616	68.77
777.795	68.72
777.973	68.8
778.152	68.72
778.33	68.77
778.509	68.87
778.688	68.86
778.866	68.91
779.045	68.91
779.223	68.94
779.402	68.91
779.58	68.85
779.759	68.7
779.937	68.75
780.116	68.85
780.294	68.98
780.473	69.02
780.651	69.01
780.829	68.93
781.008	68.88
781.186	68.96
781.364	69.12
781.543	69.26
781.721	69.55
781.899	69.53
782.078	69.51
782.256	69.43
782.434	69.49
782.612	69.52
782.791	69.73
782.969	69.93
783.147	69.86
783.325	69.75
783.503	69.86
783.681	69.76
783.86	69.74
784.038	69.8
784.216	69.84
784.394	69.74
784.572	69.82
784.75	69.65
784.928	69.6
785.106	69.57
785.284	69.57
785.462	69.57
785.64	69.53
785.818	69.66
785.996	69.67
786.174	69.77
786.352	69.9
786.53	69.73
786.707	69.77
786.885	69.68
787.063	69.74
787.241	69.63
787.419	69.41
787.597	69.49
787.774	69.39
787.952	69.44
788.13	69.27
788.308	69.25
788.485	69.26
788.663	69.28
788.841	69.45
789.018	69.58
789.196	69.68
789.374	69.79
789.551	69.72
789.729	69.82
789.906	69.69
790.084	69.82
790.262	69.71
790.439	69.79
790.617	69.88
790.794	69.77
790.972	69.55
791.149	69.57
791.327	69.59
791.504	69.72
791.681	69.68
791.859	69.73
792.036	69.64
792.214	69.78
792.391	69.86
792.568	69.93
792.746	69.99
792.923	70.16
793.1	70.15
793.278	70.01
793.455	69.88
793.632	69.94
793.809	70.04
793.987	70.01
794.164	70.1
794.341	69.99
794.518	70.01
794.695	69.93
794.872	69.87
795.05	69.93
795.227	70.02
795.404	69.95
795.581	69.86
795.758	69.8
795.935	69.97
796.112	69.91
796.289	69.87
796.466	69.69
796.643	69.67
796.82	69.55
796.997	69.52
797.174	69.66
797.351	69.79
797.528	69.82
797.704	69.82
797.881	69.72
798.058	69.8
798.235	70.01
798.412	70.06
798.589	70.19
798.765	70.22
798.942	70.15
799.119	70
799.296	69.89
799.472	69.98
799.649	70
799.826	69.88
800.003	69.65
800.179	69.54
800.356	69.54
800.533	69.51
800.709	69.61
800.886	69.77
801.062	69.91
801.239	70.07
801.415	70.04
801.592	70.05
801.769	70.2
801.945	70.21
802.122	70.41
802.298	70.36
802.474	70.46
802.651	70.52
802.827	70.67
803.004	70.7
803.18	70.78
803.356	70.73
803.533	70.8
803.709	70.99
803.886	71.14
804.062	70.93
804.238	71.09
804.414	70.9
804.591	70.91
804.767	70.61
804.943	70.53
805.119	70.5
805.296	70.5
805.472	70.4
805.648	70.29
805.824	70.24
806	70.14
806.176	70.01
806.352	70.18
806.529	70.18
806.705	70.26
806.881	70.32
807.057	70.29
807.233	70.28
807.409	70.37
807.585	70.42
807.761	70.46
807.937	70.59
808.113	70.84
808.289	70.89
808.464	70.9
808.64	70.87
808.816	70.92
808.992	71
809.168	70.92
809.344	70.87
809.52	70.87
809.695	70.98
809.871	71.02
810.047	70.88
810.223	70.87
810.398	70.87
810.574	70.99
810.75	71.12
810.926	71.11
811.101	71.32
811.277	71.4
811.453	71.45
811.628	71.5
811.804	71.72
811.979	71.8
812.155	71.67
812.331	71.68
812.506	71.74
812.682	71.58
812.857	71.52
813.033	71.45
813.208	71.52
813.384	71.52
813.559	71.52
813.734	71.3
813.91	71.46
814.085	71.46
814.261	71.59
814.436	71.43
814.611	71.46
814.787	71.56
814.962	71.69
815.137	71.56
815.313	71.41
815.488	71.26
815.663	71.34
815.838	71.21
816.014	71.34
816.189	71.22
816.364	71.42
816.539	71.35
816.714	71.36
816.89	71.36
817.065	71.64
817.24	71.81
817.415	71.74
817.59	71.51
817.765	71.46
817.94	71.43
818.115	71.72
818.29	71.95
818.465	72.07
818.64	72.21
818.815	72.06
818.99	71.8
819.165	71.63
819.34	71.57
819.515	71.64
819.69	71.43
819.865	71.24
820.039	70.9
820.214	70.47
820.389	70.27
820.564	70.1
820.739	70.14
820.913	70.39
821.088	70.32
821.263	70.38
821.438	70.14
821.612	70.08
821.787	69.97
821.962	69.8
822.136	69.63
822.311	69.41
822.486	69.26
822.66	69.16
822.835	69.13
823.009	69.13
823.184	69.17
823.359	69.26
823.533	69.34
823.708	69.44
823.882	69.57
824.057	69.73
824.231	69.93
824.405	70.17
824.58	70.36
824.754	70.51
824.929	70.7
825.103	70.79
825.277	70.97
825.452	71.09
825.626	71.12
825.801	71.11
825.975	71.16
826.149	71.17
826.323	71.12
826.498	71.11
826.672	70.98
826.846	70.85
827.02	70.71
827.195	70.51
827.369	70.36
827.543	70.31
827.717	70.27
827.891	70.29
828.065	70.3
828.239	70.33
828.413	70.43
828.587	70.53
828.762	70.7
828.936	70.87
829.11	71.04
829.284	71.25
829.458	71.49
829.632	71.71
829.805	71.78
829.979	71.96
830.153	72.1
830.327	71.98
830.501	72.05
830.675	72.01
830.849	72.14
831.023	72.25
831.196	72.15
831.37	72.08
831.544	71.99
831.718	72.01
831.892	72.07
832.065	72.04
832.239	72.21
832.413	72.24
832.586	72.13
832.76	71.95
832.934	71.59
833.107	71.55
833.281	71.34
833.455	71.28
833.628	71.07
833.802	70.79
833.975	70.62
834.149	70.63
834.322	70.57
834.496	70.57
834.67	70.65
834.843	70.75
835.016	70.79
835.19	70.88
835.363	71.02
835.537	71.23
835.71	71.38
835.884	71.62
836.057	71.81
836.23	72
836.404	72.21
836.577	72.24
836.75	72.43
836.923	72.59
837.097	72.73
837.27	72.88
837.443	73.01
837.616	73.23
837.79	73.15
837.963	73.08
838.136	72.99
838.309	73.08
838.482	73.3
838.655	73.18
838.829	73.24
839.002	73.72
839.175	73.47
839.348	73.41
839.521	73.59
839.694	73.58
839.867	73.49
840.04	73.35
840.213	73.14
840.386	73.06
840.559	73.18
840.732	73.06
840.905	72.87
841.077	72.7
841.25	72.44
841.423	72.47
841.596	72.57
841.769	72.66
841.942	72.86
842.114	72.84
842.287	72.9
842.46	72.8
842.633	72.84
842.806	72.66
842.978	73.13
843.151	73.62
843.324	73.39
843.496	73.42
843.669	73.47
843.842	73.75
844.014	73.89
844.187	74.05
844.359	74.3
844.532	74.31
844.704	74.49
844.877	73.98
845.05	74.11
845.222	74.42
845.395	74.55
845.567	74.53
845.739	74.43
845.912	74.56
846.084	74.39
846.257	74.38
846.429	74.57
846.601	74.15
846.774	74.68
846.946	74.25
847.119	74.43
847.291	74.08
847.463	74.39
847.635	73.92
847.808	74.26
847.98	74.28
848.152	74.71
848.324	75.27
848.497	75.23
848.669	74.83
848.841	75.37
849.013	75.03
849.185	75.02
849.357	75.13
849.529	75.43
849.701	75.59
849.873	75.66
850.046	75.41
850.218	75.05
850.39	75.72
850.562	75.94
850.734	75.65
850.906	75.19
851.077	75.3
851.249	75.06
851.421	75.35
851.593	75.21
851.765	75.41
851.937	75.38
852.109	75.64
852.281	75.47
852.452	75.58
852.624	75.19
852.796	75.9
852.968	76.79
853.14	76.91
853.311	76.63
853.483	76.43
853.655	75.99
853.826	76.15
853.998	75.96
854.17	75.92
854.341	75.88
854.513	76.98
854.685	77.17
854.856	76.38
855.028	76.7
855.199	76.87
855.371	77.01
855.542	77.39
855.714	77.83
855.885	78.1
856.057	77.87
856.228	77.79
856.4	76.99
856.571	77.04
856.743	76.88
856.914	76.4
857.085	76.32
857.257	76.37
857.428	76.67
857.599	76.07
857.771	75.58
857.942	75.47
858.113	75.87
858.284	75.72
858.456	75.43
858.627	76.03
858.798	75.82
858.969	76.2
859.141	75.87
859.312	76.22
859.483	76.28
859.654	76.22
859.825	76.54
859.996	76.6
860.167	77.23
860.338	77.56
860.509	77.68
860.68	77.74
860.851	77.72
861.022	78.56
861.193	77.96
861.364	77.72
861.535	78.55
861.706	78.85
861.877	79.04
862.048	78.67
862.219	78.7
862.39	78.39
862.561	78.71
862.731	78.39
862.902	77.58
863.073	77.03
863.244	76.76
863.415	75.87
863.585	75.86
863.756	75.25
863.927	75.66
864.097	75.6
864.268	75.72
864.439	76.23
864.609	76.66
864.78	77.03
864.951	77.33
865.121	77.86
865.292	77.52
865.463	77.44
865.633	78.14
865.804	77.85
865.974	77.28
866.145	76.63
866.315	75.99
866.486	75.88
866.656	75.87
866.826	75.95
866.997	76.02
867.167	76.78
867.338	77.33
867.508	76.28
867.678	76.48
867.849	76.9
868.019	77.23
868.189	77.23
868.36	77.44
868.53	77.88
868.7	78.32
868.87	78.04
869.041	79.05
869.211	78.47
869.381	79.02
869.551	78.91
869.721	78.77
869.891	78.51
870.062	78.62
870.232	78.38
870.402	77.69
870.572	77.77
870.742	78.12
870.912	76.94
871.082	76.96
871.252	77.32
871.422	77.07
871.592	77.81
871.762	78.41
871.932	78.76
872.102	79.19
872.272	79.54
872.442	79.61
872.611	79.2
872.781	79.53
872.951	79.26
873.121	79.08
873.291	79.29
873.461	78.97
873.63	78.87
873.8	79.24
873.97	79.2
874.14	79.61
874.309	78.91
874.479	79.18
874.649	78.92
874.818	79.86
874.988	79.93
875.158	79.88
875.327	79.57
875.497	79.69
875.666	79.68
875.836	79.2
876.005	78.57
876.175	79.31
876.344	79.27
876.514	79.29
876.683	78.73
876.853	78.86
877.022	78.71
877.192	78.46
877.361	79.02
877.531	78.21
877.7	78.1
877.869	78.42
878.039	78.48
878.208	79.25
878.377	79.06
878.547	79.06
878.716	78.28
878.885	77.98
879.054	78.58
879.224	77.55
879.393	78.21
879.562	78.91
879.731	78.2
879.9	77.67
880.069	77.49
880.239	77.42
880.408	77.05
880.577	77.17
880.746	77.25
880.915	76.48
881.084	76.23
881.253	75.19
881.422	74.56
881.591	74.15
881.76	73.51
881.929	72.97
882.098	72.72
882.267	72.68
882.436	72.51
882.605	72.47
882.773	72.42
882.942	72.4
883.111	72.42
883.28	72.53
883.449	72.66
883.618	72.98
883.786	73.06
883.955	73.16
884.124	73.2
884.293	73.36
884.461	73.43
884.63	73.71
884.799	74
884.967	74.34
885.136	74.35
885.305	74.45
885.473	74.42
885.642	74.71
885.81	75.08
885.979	75.25
886.148	75.46
886.316	75.89
886.485	75.91
886.653	75.9
886.822	76.08
886.99	76.49
887.158	76.69
887.327	76.96
887.495	77.03
887.664	76.88
887.832	77.16
888	77.03
888.169	76.91
888.337	77.09
888.505	77.27
888.674	77.28
888.842	77.09
889.01	77.42
889.178	77.3
889.347	77.17
889.515	77.23
889.683	77.38
889.851	78.01
