Data from Bird_2_Reflection_1.txt Node
Date: Fri Jan 31 09:37:47 MST 2020
User: Lab User
Spectrometer: USB4J01344
Trigger mode: 0
Integration Time (sec): 1.047400E-1
Scans to average: 20
Electric dark correction enabled: false
Nonlinearity correction enabled: false
Boxcar width: 5
XAxis mode: Wavelengths
Number of Pixels in Spectrum: 3648
>>>>>Begin Spectral Data<<<<<
177.498	-116.24
177.717	-133.63
177.936	-194.44
178.155	-171.97
178.374	-209.77
178.593	-258.68
178.812	-476.77
179.031	-806.12
179.251	-942.58
179.47	-1457.78
179.689	-1714.1
179.908	8670
180.127	407.24
180.346	280.04
180.565	209.46
180.784	162.18
181.003	142.77
181.222	134.7
181.441	119.71
181.66	107.25
181.879	98.05
182.098	92.44
182.316	89.44
182.535	93.75
182.754	94.94
182.973	91.97
183.192	95.91
183.411	86.33
183.63	88.37
183.849	85.12
184.067	84.84
184.286	84.9
184.505	83.69
184.724	86.71
184.943	76.38
185.161	73.35
185.38	74.35
185.599	76.42
185.818	83.01
186.036	85.77
186.255	86.1
186.474	83.67
186.693	82.16
186.911	79.82
187.13	79.53
187.349	86.99
187.567	92.54
187.786	93.89
188.004	90.31
188.223	89.55
188.442	89.93
188.66	89.55
188.879	87.13
189.097	88.01
189.316	92.55
189.535	91.5
189.753	91.84
189.972	91.4
190.19	88.82
190.409	91.61
190.627	92.17
190.846	88.33
191.064	88.55
191.283	92.16
191.501	95.22
191.719	93.86
191.938	92.18
192.156	89.88
192.375	83.85
192.593	81.39
192.811	80.52
193.03	81.15
193.248	83.04
193.467	81.84
193.685	81
193.903	76.77
194.121	78.83
194.34	81.7
194.558	80.38
194.776	84.45
194.995	88.26
195.213	85.42
195.431	80.57
195.649	77.25
195.868	75.08
196.086	74.42
196.304	74.95
196.522	74.69
196.74	72.58
196.958	72.62
197.177	71.75
197.395	70.81
197.613	74.98
197.831	76.45
198.049	77.45
198.267	82.14
198.485	81.05
198.703	80.95
198.921	80.88
199.139	82.45
199.358	82.76
199.576	82.69
199.794	82.32
200.012	78.28
200.23	79.29
200.448	77.57
200.666	72.26
200.883	73.67
201.101	76.56
201.319	73.97
201.537	74.73
201.755	76.35
201.973	78.1
202.191	80.53
202.409	85.27
202.627	86.06
202.845	90.97
203.062	95.41
203.28	93.55
203.498	91.19
203.716	91.27
203.934	87.46
204.151	85.39
204.369	81.34
204.587	78.26
204.805	76.54
205.022	76.41
205.24	73.14
205.458	68.27
205.676	69.88
205.893	71.75
206.111	69.96
206.329	70.76
206.546	69.44
206.764	67.81
206.982	67.85
207.199	68.73
207.417	69.34
207.634	69.09
207.852	69.56
208.07	64.88
208.287	65.57
208.505	66.33
208.722	65.68
208.94	68.92
209.157	72.5
209.375	73.54
209.592	71.39
209.81	71.25
210.027	67.49
210.245	69.39
210.462	74.13
210.68	70.58
210.897	73.03
211.115	73.65
211.332	69.56
211.549	66.78
211.767	65.29
211.984	65.97
212.201	64.43
212.419	70.57
212.636	69.89
212.854	67.06
213.071	67.25
213.288	62.98
213.505	63.68
213.723	66.42
213.94	70.25
214.157	68.16
214.374	68.08
214.592	68.97
214.809	70.09
215.026	70.57
215.243	69.92
215.461	73.23
215.678	73.02
215.895	73.28
216.112	72.44
216.329	69.51
216.546	72.43
216.763	70.82
216.981	70.5
217.198	68.83
217.415	69.97
217.632	71.73
217.849	69.64
218.066	74.32
218.283	72.22
218.5	70.61
218.717	68.96
218.934	70.32
219.151	71.12
219.368	68.64
219.585	65.39
219.802	66.71
220.019	67.12
220.236	63.79
220.453	59.46
220.67	57.07
220.887	55.24
221.103	55.84
221.32	53.76
221.537	56.94
221.754	57.71
221.971	57.76
222.188	56.34
222.405	54.64
222.621	56.93
222.838	58.94
223.055	59.93
223.272	61.12
223.488	60.82
223.705	60.55
223.922	60.86
224.139	63.54
224.355	67.16
224.572	63.47
224.789	64.58
225.005	61.37
225.222	61.16
225.439	62.04
225.655	62.13
225.872	60.54
226.089	58.08
226.305	54.79
226.522	52.06
226.738	46.54
226.955	46.07
227.172	41.46
227.388	40.06
227.605	37.91
227.821	35.08
228.038	32.48
228.254	31.75
228.471	31.05
228.687	30.73
228.904	29.95
229.12	30.19
229.337	29.66
229.553	31.03
229.77	31.04
229.986	31.3
230.202	31.77
230.419	33.54
230.635	34.26
230.851	34.16
231.068	34.52
231.284	35.33
231.501	35.87
231.717	36.16
231.933	36.74
232.149	36.73
232.366	36.6
232.582	36.31
232.798	35.5
233.015	33.65
233.231	32.58
233.447	32.13
233.663	31.14
233.879	30.24
234.096	29.5
234.312	28.09
234.528	27.31
234.744	26.7
234.96	26.52
235.176	26.68
235.393	26.78
235.609	26.91
235.825	25.19
236.041	25.03
236.257	24.98
236.473	24.51
236.689	24.92
236.905	25.22
237.121	24.74
237.337	23.96
237.553	23.73
237.769	23.32
237.985	23.62
238.201	23.99
238.417	23.59
238.633	23.38
238.849	23.18
239.065	22.31
239.281	21.7
239.497	21.33
239.713	21.44
239.928	20.53
240.144	19.98
240.36	19.03
240.576	18.32
240.792	17.71
241.008	17.17
241.223	16.63
241.439	16.12
241.655	15.87
241.871	15.46
242.087	15.1
242.302	15.01
242.518	15.1
242.734	14.98
242.95	14.95
243.165	15.09
243.381	15.11
243.597	15.27
243.812	15.76
244.028	15.84
244.244	16.08
244.459	16.13
244.675	16.01
244.89	15.73
245.106	15.48
245.322	15.03
245.537	14.43
245.753	14.03
245.968	13.67
246.184	13.3
246.399	13.04
246.615	13.01
246.83	12.98
247.046	12.99
247.261	12.91
247.477	12.94
247.692	13.01
247.908	13.02
248.123	13.04
248.339	13.12
248.554	13.31
248.769	13.64
248.985	13.84
249.2	13.85
249.416	14.02
249.631	14.26
249.846	14.19
250.062	14.29
250.277	14.39
250.492	14.58
250.707	14.54
250.923	14.1
251.138	13.65
251.353	13.37
251.569	13.32
251.784	13.18
251.999	13.03
252.214	13.12
252.429	13.19
252.645	13.33
252.86	13.36
253.075	13.51
253.29	13.78
253.505	14.07
253.72	14.32
253.935	14.6
254.151	14.8
254.366	15.27
254.581	15.36
254.796	15.35
255.011	15.36
255.226	15.21
255.441	15.12
255.656	14.75
255.871	14.67
256.086	14.44
256.301	14.36
256.516	14.2
256.731	13.88
256.946	13.83
257.161	14
257.376	13.59
257.591	13.59
257.806	13.39
258.02	13.3
258.235	13
258.45	12.79
258.665	12.44
258.88	12.29
259.095	12.15
259.31	11.99
259.524	11.82
259.739	11.92
259.954	11.8
260.169	11.8
260.383	11.85
260.598	11.88
260.813	11.89
261.028	12.01
261.242	12.08
261.457	12.23
261.672	12.46
261.886	12.6
262.101	12.63
262.316	12.64
262.53	12.63
262.745	12.54
262.96	12.58
263.174	12.68
263.389	12.71
263.603	12.72
263.818	12.6
264.033	12.54
264.247	12.51
264.462	12.49
264.676	12.68
264.891	12.83
265.105	12.88
265.32	12.7
265.534	12.62
265.749	12.64
265.963	12.59
266.178	12.59
266.392	12.59
266.606	12.63
266.821	12.56
267.035	12.54
267.25	12.41
267.464	12.28
267.678	12.48
267.893	12.46
268.107	12.4
268.321	12.47
268.536	12.45
268.75	12.39
268.964	12.34
269.179	12.4
269.393	12.05
269.607	12
269.821	12.16
270.036	11.84
270.25	11.79
270.464	11.77
270.678	11.6
270.892	11.59
271.106	11.63
271.321	11.53
271.535	11.51
271.749	11.64
271.963	11.63
272.177	11.46
272.391	11.53
272.605	11.46
272.819	11.46
273.033	11.47
273.248	11.47
273.462	11.44
273.676	11.52
273.89	11.52
274.104	11.66
274.318	11.59
274.532	11.69
274.746	11.71
274.96	11.79
275.173	11.83
275.387	11.87
275.601	11.88
275.815	11.95
276.029	11.9
276.243	11.94
276.457	11.91
276.671	12.05
276.885	12.03
277.098	12.04
277.312	12.05
277.526	12.01
277.74	12.06
277.954	12
278.167	11.93
278.381	11.96
278.595	11.93
278.809	11.91
279.022	11.86
279.236	11.89
279.45	11.85
279.663	11.87
279.877	11.79
280.091	11.79
280.304	11.85
280.518	11.8
280.732	11.66
280.945	11.56
281.159	11.52
281.373	11.49
281.586	11.35
281.8	11.26
282.013	11.24
282.227	11.28
282.44	11.18
282.654	11.09
282.867	11.12
283.081	11.25
283.294	11.26
283.508	11.23
283.721	11.15
283.935	11.17
284.148	11.25
284.362	11.17
284.575	11.16
284.789	11.1
285.002	11.07
285.215	10.96
285.429	10.86
285.642	10.81
285.855	10.78
286.069	10.85
286.282	10.96
286.495	10.92
286.709	10.86
286.922	10.84
287.135	10.83
287.348	10.81
287.562	10.87
287.775	10.87
287.988	10.9
288.201	10.92
288.415	10.88
288.628	10.75
288.841	10.69
289.054	10.75
289.267	10.69
289.48	10.72
289.694	10.74
289.907	10.66
290.12	10.67
290.333	10.64
290.546	10.68
290.759	10.65
290.972	10.71
291.185	10.71
291.398	10.72
291.611	10.76
291.824	10.81
292.037	10.78
292.25	10.85
292.463	10.92
292.676	10.92
292.889	10.85
293.102	10.87
293.315	10.83
293.528	10.81
293.741	10.82
293.954	10.82
294.166	10.77
294.379	10.81
294.592	10.8
294.805	10.77
295.018	10.75
295.231	10.76
295.443	10.75
295.656	10.77
295.869	10.81
296.082	10.76
296.295	10.75
296.507	10.7
296.72	10.69
296.933	10.63
297.145	10.57
297.358	10.57
297.571	10.53
297.783	10.53
297.996	10.47
298.209	10.44
298.421	10.43
298.634	10.37
298.847	10.42
299.059	10.49
299.272	10.49
299.484	10.54
299.697	10.54
299.91	10.61
300.122	10.58
300.335	10.6
300.547	10.6
300.76	10.64
300.972	10.65
301.185	10.63
301.397	10.53
301.609	10.58
301.822	10.56
302.034	10.56
302.247	10.54
302.459	10.6
302.672	10.63
302.884	10.72
303.096	10.77
303.309	10.8
303.521	10.85
303.733	10.88
303.946	10.89
304.158	10.91
304.37	10.96
304.583	10.99
304.795	10.98
305.007	11
305.219	11.01
305.432	10.97
305.644	10.99
305.856	11.01
306.068	10.98
306.28	10.96
306.493	10.99
306.705	10.96
306.917	10.96
307.129	10.98
307.341	10.9
307.553	10.84
307.765	10.79
307.977	10.76
308.189	10.71
308.402	10.7
308.614	10.75
308.826	10.72
309.038	10.74
309.25	10.75
309.462	10.68
309.674	10.74
309.886	10.67
310.098	10.66
310.31	10.67
310.522	10.7
310.733	10.75
310.945	10.7
311.157	10.64
311.369	10.59
311.581	10.58
311.793	10.63
312.005	10.62
312.217	10.65
312.428	10.7
312.64	10.71
312.852	10.68
313.064	10.7
313.276	10.75
313.487	10.86
313.699	10.92
313.911	10.79
314.123	10.78
314.334	10.84
314.546	10.88
314.758	10.9
314.97	10.81
315.181	10.85
315.393	10.82
315.604	10.86
315.816	10.88
316.028	10.87
316.239	10.95
316.451	10.97
316.663	10.95
316.874	10.96
317.086	10.93
317.297	11.08
317.509	11.04
317.72	11.06
317.932	11.1
318.143	11.11
318.355	11.14
318.566	11.21
318.778	11.22
318.989	11.2
319.201	11.17
319.412	11.18
319.624	11.18
319.835	11.16
320.046	11.14
320.258	11.06
320.469	11
320.68	11
320.892	11.01
321.103	11.06
321.314	11.07
321.526	11.14
321.737	11.17
321.948	11.13
322.16	11.18
322.371	11.18
322.582	11.16
322.793	11.18
323.005	11.2
323.216	11.13
323.427	11.04
323.638	10.98
323.849	10.88
324.06	10.81
324.272	10.8
324.483	10.73
324.694	10.73
324.905	10.79
325.116	10.72
325.327	10.66
325.538	10.63
325.749	10.66
325.96	10.67
326.171	10.66
326.382	10.69
326.593	10.65
326.804	10.69
327.015	10.66
327.226	10.67
327.437	10.7
327.648	10.7
327.859	10.83
328.07	10.86
328.281	10.89
328.492	10.98
328.703	11.15
328.914	11.2
329.125	11.21
329.335	11.3
329.546	11.24
329.757	11.29
329.968	11.32
330.179	11.23
330.39	11.24
330.6	11.21
330.811	11.11
331.022	11.06
331.233	11.14
331.443	11.16
331.654	11.14
331.865	11.15
332.075	11.15
332.286	11.08
332.497	11.15
332.707	11.08
332.918	11.13
333.129	11.21
333.339	11.13
333.55	11.01
333.761	10.97
333.971	11.01
334.182	10.98
334.392	10.98
334.603	11.01
334.813	10.93
335.024	10.93
335.234	10.89
335.445	10.84
335.655	10.85
335.866	10.86
336.076	10.9
336.287	10.87
336.497	10.85
336.708	10.84
336.918	10.84
337.128	10.96
337.339	10.99
337.549	10.96
337.759	10.98
337.97	10.92
338.18	10.89
338.39	10.84
338.601	10.9
338.811	10.96
339.021	10.94
339.232	10.96
339.442	10.87
339.652	10.92
339.862	10.94
340.073	10.98
340.283	11.04
340.493	11.14
340.703	11.15
340.913	11.01
341.124	10.95
341.334	10.92
341.544	10.96
341.754	10.96
341.964	10.91
342.174	10.96
342.384	11.02
342.594	11
342.804	10.97
343.014	11.08
343.224	11.05
343.435	11.12
343.645	11.07
343.855	11.05
344.065	11.02
344.274	11.05
344.484	11
344.694	10.92
344.904	10.94
345.114	10.88
345.324	10.72
345.534	10.7
345.744	10.66
345.954	10.7
346.164	10.7
346.374	10.66
346.583	10.6
346.793	10.63
347.003	10.57
347.213	10.56
347.423	10.6
347.632	10.65
347.842	10.76
348.052	10.8
348.262	10.89
348.471	10.82
348.681	10.86
348.891	10.86
349.1	10.93
349.31	11
349.52	11.05
349.729	11.06
349.939	11.08
350.149	11.05
350.358	11.05
350.568	11.03
350.778	11.03
350.987	11.06
351.197	11.11
351.406	10.58
351.616	10.55
351.825	10.55
352.035	10.53
352.244	10.55
352.454	10.49
352.663	10.52
352.873	10.52
353.082	10.54
353.292	10.56
353.501	10.55
353.711	11.02
353.92	11.09
354.129	11.07
354.339	11.06
354.548	11.06
354.757	11.09
354.967	11.06
355.176	11.04
355.385	11.01
355.595	10.98
355.804	10.95
356.013	10.96
356.223	10.86
356.432	10.87
356.641	10.9
356.85	10.87
357.059	10.84
357.269	10.78
357.478	10.81
357.687	10.85
357.896	10.85
358.105	10.87
358.314	10.85
358.524	10.9
358.733	10.92
358.942	10.9
359.151	10.9
359.36	10.99
359.569	11.03
359.778	10.99
359.987	10.96
360.196	10.92
360.405	10.92
360.614	10.84
360.823	10.76
361.032	10.74
361.241	10.72
361.45	10.71
361.659	10.64
361.868	10.62
362.077	10.64
362.286	10.66
362.495	10.67
362.704	10.68
362.912	10.73
363.121	10.78
363.33	10.78
363.539	10.8
363.748	10.83
363.957	10.86
364.165	10.91
364.374	10.93
364.583	10.92
364.792	10.94
365	10.94
365.209	10.91
365.418	10.93
365.626	10.97
365.835	10.95
366.044	10.95
366.253	11
366.461	10.99
366.67	10.94
366.878	11
367.087	10.98
367.296	11
367.504	11.01
367.713	11.04
367.921	11.01
368.13	11.09
368.338	11.04
368.547	10.99
368.755	11
368.964	11.06
369.172	11.02
369.381	11.12
369.589	11.13
369.798	11.18
370.006	11.17
370.215	11.12
370.423	11.03
370.632	11.04
370.84	11.08
371.048	11.11
371.257	11.13
371.465	11.11
371.673	11.09
371.882	11.1
372.09	11.1
372.298	11.11
372.507	11.17
372.715	11.23
372.923	11.27
373.131	11.25
373.34	11.23
373.548	11.22
373.756	11.24
373.964	11.25
374.172	11.24
374.381	11.3
374.589	11.33
374.797	11.33
375.005	11.35
375.213	11.36
375.421	11.33
375.629	11.31
375.837	11.25
376.045	11.24
376.254	11.22
376.462	11.21
376.67	11.19
376.878	11.14
377.086	11.12
377.294	11.09
377.502	11.1
377.71	11.17
377.918	11.16
378.126	11.2
378.333	11.23
378.541	11.25
378.749	11.3
378.957	11.29
379.165	11.32
379.373	11.33
379.581	11.33
379.789	11.33
379.996	11.31
380.204	11.34
380.412	11.38
380.62	11.37
380.828	11.33
381.035	11.33
381.243	11.35
381.451	11.34
381.659	11.34
381.866	11.38
382.074	11.37
382.282	11.42
382.489	11.42
382.697	11.39
382.905	11.4
383.112	11.44
383.32	11.42
383.528	11.39
383.735	11.37
383.943	11.41
384.15	11.4
384.358	11.39
384.565	11.35
384.773	11.34
384.981	11.38
385.188	11.38
385.396	11.37
385.603	11.37
385.811	11.37
386.018	11.38
386.225	11.35
386.433	11.36
386.64	11.38
386.848	11.4
387.055	11.43
387.263	11.4
387.47	11.37
387.677	11.36
387.885	11.38
388.092	11.39
388.299	11.45
388.507	11.46
388.714	11.47
388.921	11.48
389.128	11.47
389.336	11.43
389.543	11.45
389.75	11.47
389.957	11.5
390.165	11.49
390.372	11.52
390.579	11.46
390.786	11.49
390.993	11.48
391.2	11.47
391.408	11.49
391.615	11.53
391.822	11.54
392.029	11.56
392.236	11.55
392.443	11.54
392.65	11.52
392.857	11.55
393.064	11.55
393.271	11.52
393.478	11.55
393.685	11.55
393.892	11.52
394.099	11.47
394.306	11.46
394.513	11.44
394.72	11.45
394.927	11.46
395.134	11.46
395.341	11.46
395.547	11.48
395.754	11.48
395.961	11.51
396.168	11.52
396.375	11.6
396.582	11.64
396.788	11.7
396.995	11.71
397.202	11.7
397.409	11.71
397.616	11.72
397.822	11.71
398.029	11.7
398.236	11.72
398.442	11.71
398.649	11.68
398.856	11.69
399.062	11.7
399.269	11.7
399.476	11.74
399.682	11.72
399.889	11.73
400.096	11.77
400.302	11.78
400.509	11.74
400.715	11.78
400.922	11.79
401.128	11.8
401.335	11.8
401.541	11.8
401.748	11.79
401.954	11.87
402.161	11.88
402.367	11.89
402.574	11.89
402.78	11.91
402.986	11.89
403.193	11.89
403.399	11.87
403.606	11.88
403.812	11.9
404.018	11.91
404.225	11.89
404.431	11.88
404.637	11.86
404.844	11.86
405.05	11.88
405.256	11.93
405.462	11.93
405.669	11.93
405.875	11.93
406.081	11.95
406.287	11.96
406.494	11.96
406.7	11.98
406.906	12.01
407.112	12.04
407.318	12.02
407.524	12.03
407.73	12.07
407.937	12.09
408.143	12.08
408.349	12.08
408.555	12.08
408.761	12.08
408.967	12.08
409.173	12.09
409.379	12.1
409.585	12.12
409.791	12.09
409.997	12.09
410.203	12.11
410.409	12.12
410.615	12.1
410.821	12.1
411.027	12.14
411.233	12.18
411.438	12.19
411.644	12.2
411.85	12.22
412.056	12.26
412.262	12.3
412.468	12.28
412.673	12.29
412.879	12.3
413.085	12.32
413.291	12.3
413.497	12.32
413.702	12.32
413.908	12.33
414.114	12.35
414.319	12.34
414.525	12.31
414.731	12.33
414.937	12.38
415.142	12.4
415.348	12.39
415.553	12.4
415.759	12.39
415.965	12.39
416.17	12.39
416.376	12.38
416.581	12.4
416.787	12.41
416.992	12.4
417.198	12.37
417.404	12.37
417.609	12.4
417.815	12.39
418.02	12.38
418.225	12.37
418.431	12.36
418.636	12.34
418.842	12.34
419.047	12.34
419.253	12.34
419.458	12.36
419.663	12.35
419.869	12.33
420.074	12.34
420.279	12.33
420.485	12.35
420.69	12.34
420.895	12.36
421.101	12.36
421.306	12.38
421.511	12.38
421.716	12.4
421.922	12.39
422.127	12.39
422.332	12.42
422.537	12.44
422.742	12.45
422.947	12.48
423.153	12.5
423.358	12.5
423.563	12.52
423.768	12.52
423.973	12.52
424.178	12.56
424.383	12.57
424.588	12.58
424.793	12.59
424.998	12.6
425.203	12.6
425.408	12.62
425.613	12.65
425.818	12.67
426.023	12.71
426.228	12.75
426.433	12.77
426.638	12.8
426.843	12.83
427.048	12.85
427.253	12.88
427.458	12.93
427.663	12.95
427.867	12.98
428.072	12.99
428.277	13
428.482	13.02
428.687	13.04
428.892	13.05
429.096	13.07
429.301	13.1
429.506	13.12
429.711	13.15
429.915	13.16
430.12	13.15
430.325	13.16
430.529	13.18
430.734	13.19
430.939	13.21
431.143	13.22
431.348	13.23
431.553	13.22
431.757	13.21
431.962	13.2
432.166	13.21
432.371	13.23
432.575	13.24
432.78	13.24
432.984	13.22
433.189	13.22
433.394	13.25
433.598	13.24
433.802	13.27
434.007	13.3
434.211	13.3
434.416	13.31
434.62	13.33
434.825	13.36
435.029	13.39
435.233	13.45
435.438	13.47
435.642	13.48
435.846	13.52
436.051	13.53
436.255	13.56
436.459	13.59
436.664	13.59
436.868	13.6
437.072	13.61
437.276	13.58
437.481	13.59
437.685	13.59
437.889	13.57
438.093	13.57
438.298	13.59
438.502	13.58
438.706	13.59
438.91	13.61
439.114	13.61
439.318	13.6
439.522	13.61
439.726	13.61
439.931	13.63
440.135	13.64
440.339	13.66
440.543	13.65
440.747	13.67
440.951	13.68
441.155	13.7
441.359	13.72
441.563	13.75
441.767	13.8
441.971	13.81
442.175	13.84
442.378	13.87
442.582	13.88
442.786	13.93
442.99	13.96
443.194	13.98
443.398	13.99
443.602	14.02
443.806	14.05
444.009	14.05
444.213	14.05
444.417	14.07
444.621	14.08
444.825	14.1
445.028	14.08
445.232	14.08
445.436	14.09
445.639	14.1
445.843	14.12
446.047	14.1
446.251	14.1
446.454	14.1
446.658	14.09
446.861	14.1
447.065	14.11
447.269	14.15
447.472	14.17
447.676	14.2
447.879	14.22
448.083	14.24
448.287	14.26
448.49	14.28
448.694	14.3
448.897	14.33
449.101	14.36
449.304	14.38
449.507	14.4
449.711	14.43
449.914	14.43
450.118	14.44
450.321	14.47
450.525	14.51
450.728	14.55
450.931	14.58
451.135	14.61
451.338	14.62
451.541	14.64
451.745	14.67
451.948	14.66
452.151	14.69
452.355	14.71
452.558	14.7
452.761	14.71
452.964	14.7
453.168	14.74
453.371	14.75
453.574	14.77
453.777	14.79
453.98	14.81
454.183	14.84
454.387	14.88
454.59	14.9
454.793	14.92
454.996	14.96
455.199	14.98
455.402	14.99
455.605	15.02
455.808	15.05
456.011	15.09
456.214	15.1
456.417	15.13
456.62	15.11
456.823	15.13
457.026	15.15
457.229	15.18
457.432	15.19
457.635	15.21
457.838	15.2
458.041	15.17
458.244	15.18
458.447	15.19
458.65	15.19
458.852	15.2
459.055	15.19
459.258	15.2
459.461	15.2
459.664	15.23
459.867	15.22
460.069	15.24
460.272	15.28
460.475	15.28
460.678	15.29
460.88	15.3
461.083	15.34
461.286	15.37
461.488	15.4
461.691	15.43
461.894	15.44
462.096	15.48
462.299	15.51
462.502	15.52
462.704	15.57
462.907	15.6
463.109	15.65
463.312	15.65
463.514	15.71
463.717	15.71
463.92	15.73
464.122	15.75
464.325	15.78
464.527	15.81
464.729	15.86
464.932	15.86
465.134	15.9
465.337	15.91
465.539	15.96
465.742	15.94
465.944	15.98
466.146	16
466.349	16.03
466.551	16.04
466.753	16.03
466.956	16.03
467.158	16.06
467.36	16.07
467.563	16.1
467.765	16.09
467.967	16.1
468.169	16.11
468.372	16.12
468.574	16.13
468.776	16.16
468.978	16.22
469.18	16.24
469.383	16.26
469.585	16.28
469.787	16.3
469.989	16.32
470.191	16.37
470.393	16.4
470.595	16.43
470.797	16.47
470.999	16.48
471.201	16.49
471.403	16.51
471.606	16.52
471.808	16.53
472.009	16.55
472.211	16.58
472.413	16.6
472.615	16.61
472.817	16.68
473.019	16.7
473.221	16.72
473.423	16.75
473.625	16.78
473.827	16.82
474.029	16.84
474.231	16.89
474.432	16.9
474.634	16.92
474.836	16.93
475.038	16.89
475.24	16.9
475.441	16.92
475.643	16.93
475.845	16.94
476.046	16.94
476.248	16.97
476.45	16.96
476.652	16.99
476.853	17.01
477.055	17.05
477.257	17.06
477.458	17.08
477.66	17.14
477.861	17.16
478.063	17.19
478.265	17.21
478.466	17.25
478.668	17.28
478.869	17.3
479.071	17.31
479.272	17.31
479.474	17.35
479.675	17.36
479.877	17.35
480.078	17.36
480.28	17.39
480.481	17.39
480.682	17.38
480.884	17.36
481.085	17.39
481.287	17.39
481.488	17.4
481.689	17.39
481.891	17.39
482.092	17.37
482.293	17.36
482.495	17.35
482.696	17.34
482.897	17.36
483.098	17.41
483.3	17.44
483.501	17.47
483.702	17.5
483.903	17.53
484.104	17.56
484.306	17.6
484.507	17.63
484.708	17.65
484.909	17.69
485.11	17.71
485.311	17.71
485.512	17.72
485.713	17.72
485.914	17.73
486.116	17.73
486.317	17.75
486.518	17.75
486.719	17.76
486.92	17.79
487.121	17.81
487.322	17.84
487.523	17.88
487.723	17.91
487.924	17.95
488.125	17.98
488.326	18.01
488.527	18.03
488.728	18.06
488.929	18.09
489.13	18.11
489.331	18.14
489.531	18.17
489.732	18.18
489.933	18.2
490.134	18.21
490.335	18.23
490.535	18.26
490.736	18.29
490.937	18.31
491.137	18.33
491.338	18.36
491.539	18.38
491.74	18.4
491.94	18.42
492.141	18.44
492.341	18.48
492.542	18.51
492.743	18.54
492.943	18.57
493.144	18.59
493.344	18.63
493.545	18.66
493.746	18.7
493.946	18.73
494.147	18.76
494.347	18.8
494.548	18.83
494.748	18.86
494.949	18.91
495.149	18.94
495.349	18.97
495.55	19
495.75	19.04
495.951	19.05
496.151	19.09
496.351	19.14
496.552	19.18
496.752	19.21
496.952	19.21
497.153	19.25
497.353	19.27
497.553	19.29
497.754	19.32
497.954	19.34
498.154	19.39
498.354	19.42
498.554	19.42
498.755	19.44
498.955	19.47
499.155	19.51
499.355	19.54
499.555	19.57
499.755	19.6
499.956	19.62
500.156	19.66
500.356	19.69
500.556	19.72
500.756	19.78
500.956	19.81
501.156	19.83
501.356	19.84
501.556	19.87
501.756	19.9
501.956	19.97
502.156	19.99
502.356	20.01
502.556	20.05
502.756	20.08
502.956	20.06
503.156	20.08
503.356	20.11
503.555	20.14
503.755	20.15
503.955	20.19
504.155	20.21
504.355	20.25
504.555	20.26
504.754	20.27
504.954	20.31
505.154	20.34
505.354	20.39
505.553	20.43
505.753	20.47
505.953	20.5
506.153	20.53
506.352	20.52
506.552	20.54
506.752	20.58
506.951	20.61
507.151	20.63
507.351	20.68
507.55	20.7
507.75	20.69
507.949	20.71
508.149	20.74
508.348	20.76
508.548	20.79
508.747	20.82
508.947	20.85
509.146	20.87
509.346	20.9
509.545	20.9
509.745	20.93
509.944	20.99
510.144	21.02
510.343	21.04
510.543	21.09
510.742	21.13
510.941	21.14
511.141	21.18
511.34	21.21
511.539	21.24
511.739	21.28
511.938	21.3
512.137	21.33
512.337	21.37
512.536	21.42
512.735	21.44
512.934	21.47
513.134	21.5
513.333	21.54
513.532	21.57
513.731	21.59
513.93	21.6
514.129	21.65
514.329	21.69
514.528	21.72
514.727	21.74
514.926	21.77
515.125	21.81
515.324	21.87
515.523	21.89
515.722	21.94
515.921	21.97
516.12	22.02
516.319	22.04
516.518	22.06
516.717	22.06
516.916	22.07
517.115	22.08
517.314	22.08
517.513	22.09
517.712	22.09
517.911	22.11
518.11	22.13
518.309	22.15
518.507	22.17
518.706	22.18
518.905	22.21
519.104	22.24
519.303	22.27
519.501	22.31
519.7	22.35
519.899	22.39
520.098	22.42
520.296	22.47
520.495	22.49
520.694	22.52
520.893	22.56
521.091	22.6
521.29	22.63
521.489	22.68
521.687	22.71
521.886	22.75
522.084	22.79
522.283	22.82
522.482	22.85
522.68	22.89
522.879	22.94
523.077	22.98
523.276	23
523.474	23.03
523.673	23.04
523.871	23.08
524.07	23.1
524.268	23.14
524.467	23.15
524.665	23.15
524.863	23.19
525.062	23.23
525.26	23.24
525.459	23.27
525.657	23.3
525.855	23.32
526.054	23.34
526.252	23.36
526.45	23.39
526.649	23.41
526.847	23.44
527.045	23.44
527.243	23.45
527.442	23.49
527.64	23.52
527.838	23.56
528.036	23.61
528.234	23.66
528.433	23.7
528.631	23.74
528.829	23.78
529.027	23.82
529.225	23.86
529.423	23.89
529.621	23.93
529.819	23.96
530.017	23.99
530.215	24.02
530.414	24.02
530.612	24.05
530.81	24.07
531.008	24.09
531.206	24.11
531.403	24.14
531.601	24.17
531.799	24.2
531.997	24.23
532.195	24.25
532.393	24.26
532.591	24.31
532.789	24.32
532.987	24.35
533.184	24.39
533.382	24.43
533.58	24.48
533.778	24.51
533.976	24.53
534.173	24.58
534.371	24.64
534.569	24.69
534.767	24.74
534.964	24.8
535.162	24.83
535.36	24.87
535.557	24.91
535.755	24.93
535.953	24.97
536.15	25
536.348	25.04
536.546	25.05
536.743	25.09
536.941	25.12
537.138	25.15
537.336	25.2
537.533	25.24
537.731	25.26
537.928	25.33
538.126	25.36
538.323	25.41
538.521	25.45
538.718	25.49
538.916	25.54
539.113	25.59
539.311	25.61
539.508	25.64
539.705	25.65
539.903	25.69
540.1	25.7
540.297	25.69
540.495	25.73
540.692	25.77
540.889	25.81
541.087	25.84
541.284	25.88
541.481	25.92
541.678	25.96
541.876	25.98
542.073	26.02
542.27	26.05
542.467	26.11
542.664	26.15
542.862	26.18
543.059	26.22
543.256	26.25
543.453	26.26
543.65	26.3
543.847	26.32
544.044	26.38
544.241	26.43
544.438	26.46
544.635	26.51
544.832	26.55
545.029	26.58
545.226	26.61
545.423	26.67
545.62	26.72
545.817	26.74
546.014	26.8
546.211	26.85
546.408	26.88
546.605	26.93
546.802	26.94
546.999	26.99
547.196	27.03
547.392	27.07
547.589	27.09
547.786	27.12
547.983	27.17
548.18	27.22
548.376	27.24
548.573	27.27
548.77	27.31
548.967	27.36
549.163	27.39
549.36	27.45
549.557	27.52
549.753	27.57
549.95	27.63
550.147	27.69
550.343	27.74
550.54	27.78
550.737	27.82
550.933	27.87
551.13	27.91
551.326	27.95
551.523	27.96
551.719	27.99
551.916	28
552.112	28.05
552.309	28.08
552.505	28.1
552.702	28.16
552.898	28.21
553.095	28.26
553.291	28.31
553.487	28.34
553.684	28.4
553.88	28.43
554.077	28.52
554.273	28.56
554.469	28.61
554.666	28.66
554.862	28.68
555.058	28.72
555.255	28.77
555.451	28.81
555.647	28.86
555.843	28.92
556.039	28.95
556.236	28.97
556.432	29.01
556.628	29.07
556.824	29.11
557.02	29.16
557.217	29.23
557.413	29.29
557.609	29.35
557.805	29.37
558.001	29.38
558.197	29.44
558.393	29.51
558.589	29.55
558.785	29.58
558.981	29.61
559.177	29.64
559.373	29.66
559.569	29.69
559.765	29.73
559.961	29.77
560.157	29.81
560.353	29.81
560.549	29.85
560.745	29.86
560.941	29.91
561.136	29.95
561.332	29.98
561.528	30.02
561.724	30.05
561.92	30.08
562.116	30.11
562.311	30.18
562.507	30.26
562.703	30.29
562.899	30.35
563.094	30.37
563.29	30.43
563.486	30.46
563.681	30.49
563.877	30.54
564.073	30.56
564.268	30.59
564.464	30.61
564.66	30.63
564.855	30.65
565.051	30.67
565.246	30.72
565.442	30.75
565.637	30.79
565.833	30.82
566.028	30.85
566.224	30.87
566.419	30.92
566.615	30.93
566.81	30.98
567.006	31.03
567.201	31.08
567.397	31.09
567.592	31.11
567.787	31.16
567.983	31.19
568.178	31.23
568.373	31.28
568.569	31.32
568.764	31.37
568.959	31.4
569.155	31.44
569.35	31.47
569.545	31.53
569.74	31.58
569.936	31.63
570.131	31.72
570.326	31.75
570.521	31.81
570.716	31.86
570.912	31.9
571.107	31.93
571.302	31.97
571.497	32.01
571.692	32.03
571.887	32.06
572.082	32.1
572.277	32.1
572.472	32.15
572.667	32.15
572.862	32.18
573.057	32.22
573.252	32.27
573.447	32.29
573.642	32.32
573.837	32.36
574.032	32.39
574.227	32.39
574.422	32.44
574.617	32.48
574.812	32.58
575.007	32.61
575.202	32.66
575.396	32.71
575.591	32.75
575.786	32.82
575.981	32.84
576.176	32.9
576.37	32.95
576.565	32.99
576.76	33.03
576.955	33.05
577.149	33.11
577.344	33.15
577.539	33.2
577.733	33.27
577.928	33.3
578.123	33.39
578.317	33.42
578.512	33.45
578.706	33.51
578.901	33.55
579.096	33.6
579.29	33.64
579.485	33.69
579.679	33.69
579.874	33.7
580.068	33.76
580.263	33.79
580.457	33.87
580.652	33.93
580.846	33.98
581.04	34
581.235	34.02
581.429	34.07
581.624	34.13
581.818	34.2
582.012	34.25
582.207	34.28
582.401	34.31
582.595	34.35
582.79	34.4
582.984	34.43
583.178	34.52
583.372	34.6
583.567	34.62
583.761	34.66
583.955	34.7
584.149	34.73
584.344	34.77
584.538	34.82
584.732	34.82
584.926	34.83
585.12	34.9
585.314	34.91
585.508	34.94
585.702	34.99
585.896	35.03
586.091	35.04
586.285	35.08
586.479	35.13
586.673	35.2
586.867	35.3
587.061	35.36
587.255	35.38
587.449	35.41
587.642	35.46
587.836	35.5
588.03	35.52
588.224	35.61
588.418	35.65
588.612	35.68
588.806	35.71
589	35.75
589.193	35.79
589.387	35.8
589.581	35.89
589.775	35.93
589.969	35.96
590.162	35.98
590.356	35.97
590.55	36.01
590.744	36.05
590.937	36.06
591.131	36.1
591.325	36.15
591.518	36.22
591.712	36.23
591.906	36.26
592.099	36.3
592.293	36.38
592.486	36.45
592.68	36.5
592.874	36.56
593.067	36.61
593.261	36.62
593.454	36.64
593.648	36.72
593.841	36.73
594.035	36.75
594.228	36.79
594.421	36.83
594.615	36.83
594.808	36.86
595.002	36.9
595.195	36.93
595.388	36.95
595.582	36.97
595.775	36.96
595.968	37.01
596.162	37.04
596.355	37.09
596.548	37.11
596.742	37.16
596.935	37.2
597.128	37.21
597.321	37.22
597.515	37.29
597.708	37.32
597.901	37.39
598.094	37.42
598.287	37.47
598.48	37.5
598.674	37.57
598.867	37.61
599.06	37.67
599.253	37.75
599.446	37.82
599.639	37.85
599.832	37.91
600.025	37.94
600.218	38.04
600.411	38.11
600.604	38.18
600.797	38.2
600.99	38.24
601.183	38.29
601.376	38.29
601.569	38.34
601.762	38.39
601.955	38.42
602.147	38.46
602.34	38.46
602.533	38.49
602.726	38.48
602.919	38.51
603.112	38.56
603.304	38.57
603.497	38.62
603.69	38.67
603.883	38.68
604.075	38.72
604.268	38.73
604.461	38.78
604.654	38.81
604.846	38.87
605.039	38.9
605.231	38.94
605.424	38.98
605.617	39.05
605.809	39.09
606.002	39.15
606.194	39.23
606.387	39.31
606.58	39.39
606.772	39.42
606.965	39.45
607.157	39.52
607.35	39.57
607.542	39.59
607.735	39.6
607.927	39.61
608.119	39.63
608.312	39.66
608.504	39.67
608.697	39.65
608.889	39.71
609.081	39.75
609.274	39.81
609.466	39.83
609.658	39.91
609.851	39.95
610.043	40.01
610.235	40.04
610.427	40.07
610.62	40.1
610.812	40.18
611.004	40.26
611.196	40.28
611.388	40.29
611.581	40.36
611.773	40.37
611.965	40.44
612.157	40.51
612.349	40.58
612.541	40.63
612.733	40.69
612.925	40.75
613.117	40.73
613.309	40.85
613.501	40.93
613.693	40.97
613.885	41.02
614.077	41.04
614.269	41.05
614.461	41.12
614.653	41.14
614.845	41.17
615.037	41.2
615.229	41.28
615.421	41.33
615.613	41.37
615.805	41.42
615.996	41.49
616.188	41.56
616.38	41.66
616.572	41.68
616.764	41.75
616.955	41.81
617.147	41.87
617.339	41.95
617.531	41.94
617.722	41.98
617.914	42.02
618.106	42.02
618.297	42.06
618.489	42.03
618.681	42.1
618.872	42.15
619.064	42.15
619.255	42.17
619.447	42.15
619.639	42.24
619.83	42.29
620.022	42.3
620.213	42.37
620.405	42.38
620.596	42.46
620.788	42.46
620.979	42.56
621.171	42.61
621.362	42.64
621.553	42.72
621.745	42.66
621.936	42.71
622.128	42.77
622.319	42.77
622.51	42.85
622.702	42.89
622.893	42.97
623.084	42.92
623.276	42.97
623.467	43.02
623.658	43.03
623.849	43.13
624.041	43.13
624.232	43.13
624.423	43.18
624.614	43.22
624.805	43.27
624.996	43.25
625.188	43.33
625.379	43.39
625.57	43.4
625.761	43.44
625.952	43.48
626.143	43.52
626.334	43.56
626.525	43.61
626.716	43.61
626.907	43.63
627.098	43.7
627.289	43.73
627.48	43.76
627.671	43.78
627.862	43.85
628.053	43.88
628.244	43.97
628.435	44.04
628.626	44.09
628.816	44.14
629.007	44.15
629.198	44.18
629.389	44.23
629.58	44.23
629.771	44.29
629.961	44.3
630.152	44.36
630.343	44.39
630.534	44.43
630.724	44.46
630.915	44.52
631.106	44.6
631.296	44.68
631.487	44.69
631.678	44.75
631.868	44.82
632.059	44.86
632.25	44.92
632.44	44.95
632.631	44.99
632.821	45.01
633.012	45.06
633.202	45.1
633.393	45.08
633.583	45.13
633.774	45.19
633.964	45.21
634.155	45.25
634.345	45.27
634.536	45.29
634.726	45.35
634.916	45.43
635.107	45.47
635.297	45.53
635.488	45.63
635.678	45.67
635.868	45.68
636.059	45.76
636.249	45.81
636.439	45.82
636.629	45.87
636.82	45.92
637.01	45.93
637.2	45.98
637.39	46.02
637.581	46.01
637.771	46.05
637.961	46.13
638.151	46.15
638.341	46.2
638.531	46.27
638.721	46.28
638.911	46.35
639.102	46.4
639.292	46.38
639.482	46.39
639.672	46.45
639.862	46.49
640.052	46.53
640.242	46.58
640.432	46.63
640.622	46.69
640.812	46.76
641.002	46.76
641.191	46.78
641.381	46.86
641.571	46.89
641.761	46.92
641.951	46.97
642.141	46.97
642.331	46.97
642.52	46.95
642.71	46.96
642.9	47.03
643.09	47.12
643.28	47.14
643.469	47.14
643.659	47.19
643.849	47.28
644.038	47.29
644.228	47.35
644.418	47.4
644.607	47.49
644.797	47.56
644.987	47.56
645.176	47.59
645.366	47.64
645.556	47.7
645.745	47.75
645.935	47.72
646.124	47.77
646.314	47.8
646.503	47.87
646.693	47.89
646.882	47.9
647.072	47.93
647.261	47.92
647.45	47.99
647.64	48.04
647.829	48.05
648.019	48.11
648.208	48.19
648.397	48.23
648.587	48.25
648.776	48.27
648.965	48.34
649.155	48.39
649.344	48.43
649.533	48.46
649.723	48.51
649.912	48.54
650.101	48.57
650.29	48.57
650.479	48.63
650.669	48.67
650.858	48.75
651.047	48.8
651.236	48.79
651.425	48.81
651.614	48.82
651.803	48.85
651.992	48.93
652.182	48.98
652.371	49.03
652.56	49.06
652.749	49.1
652.938	49.1
653.127	49.09
653.316	49.19
653.505	49.24
653.694	49.27
653.882	49.27
654.071	49.33
654.26	49.36
654.449	49.39
654.638	49.43
654.827	49.48
655.016	49.53
655.205	49.61
655.393	49.59
655.582	49.6
655.771	49.64
655.96	49.71
656.149	49.76
656.337	49.76
656.526	49.79
656.715	49.87
656.903	49.89
657.092	49.93
657.281	49.9
657.469	49.95
657.658	50.03
657.847	50.05
658.035	50.12
658.224	50.07
658.412	50.05
658.601	50.1
658.79	50.06
658.978	50.03
659.167	50.04
659.355	50.1
659.544	50.14
659.732	50.11
659.921	50.18
660.109	50.17
660.297	50.22
660.486	50.35
660.674	50.39
660.863	50.47
661.051	50.55
661.239	50.61
661.428	50.69
661.616	50.72
661.804	50.8
661.993	50.81
662.181	50.85
662.369	50.95
662.557	50.97
662.746	51.01
662.934	51.04
663.122	51.11
663.31	51.17
663.498	51.16
663.687	51.23
663.875	51.3
664.063	51.39
664.251	51.45
664.439	51.49
664.627	51.46
664.815	51.52
665.003	51.59
665.191	51.57
665.379	51.66
665.567	51.68
665.755	51.74
665.943	51.78
666.131	51.81
666.319	51.86
666.507	51.89
666.695	51.94
666.883	51.93
667.071	51.93
667.259	51.99
667.447	51.97
667.635	52.04
667.823	52.05
668.01	52.07
668.198	52.05
668.386	52.07
668.574	52.07
668.761	52.12
668.949	52.2
669.137	52.23
669.325	52.25
669.512	52.33
669.7	52.39
669.888	52.45
670.075	52.48
670.263	52.57
670.451	52.6
670.638	52.65
670.826	52.7
671.013	52.73
671.201	52.8
671.389	52.8
671.576	52.79
671.764	52.83
671.951	52.88
672.139	52.96
672.326	53
672.514	53.02
672.701	53.02
672.889	53.06
673.076	53.14
673.263	53.16
673.451	53.24
673.638	53.28
673.825	53.26
674.013	53.21
674.2	53.2
674.387	53.19
674.575	53.22
674.762	53.25
674.949	53.27
675.137	53.21
675.324	53.26
675.511	53.3
675.698	53.32
675.885	53.33
676.073	53.42
676.26	53.46
676.447	53.48
676.634	53.55
676.821	53.59
677.008	53.65
677.195	53.73
677.383	53.77
677.57	53.8
677.757	53.85
677.944	53.9
678.131	53.9
678.318	53.9
678.505	53.95
678.692	53.97
678.879	54.03
679.066	54.02
679.253	53.99
679.439	53.97
679.626	53.96
679.813	53.95
680	53.94
680.187	53.97
680.374	53.99
680.561	54.01
680.747	54
680.934	53.98
681.121	53.99
681.308	54.04
681.494	54.08
681.681	54.16
681.868	54.21
682.055	54.28
682.241	54.31
682.428	54.35
682.615	54.38
682.801	54.47
682.988	54.58
683.175	54.65
683.361	54.71
683.548	54.77
683.734	54.79
683.921	54.82
684.107	54.91
684.294	54.96
684.48	55.07
684.667	55.1
684.853	55.15
685.04	55.15
685.226	55.19
685.413	55.21
685.599	55.23
685.786	55.24
685.972	55.28
686.158	55.31
686.345	55.31
686.531	55.32
686.717	55.27
686.904	55.27
687.09	55.4
687.276	55.46
687.463	55.53
687.649	55.55
687.835	55.57
688.021	55.66
688.208	55.67
688.394	55.73
688.58	55.8
688.766	55.94
688.952	56.02
689.138	55.95
689.324	55.94
689.511	55.92
689.697	55.96
689.883	56.01
690.069	55.98
690.255	56.03
690.441	56.08
690.627	56.06
690.813	56
690.999	55.97
691.185	56.06
691.371	56.06
691.557	56.12
691.743	56.16
691.929	56.11
692.115	56.15
692.3	56.16
692.486	56.18
692.672	56.15
692.858	56.35
693.044	56.32
693.23	56.37
693.415	56.43
693.601	56.44
693.787	56.5
693.973	56.56
694.158	56.67
694.344	56.63
694.53	56.65
694.715	56.71
694.901	56.59
695.087	56.7
695.272	56.66
695.458	56.71
695.644	56.72
695.829	56.71
696.015	56.76
696.2	56.69
696.386	56.78
696.571	56.79
696.757	56.84
696.943	56.82
697.128	56.82
697.313	56.8
697.499	56.77
697.684	56.77
697.87	56.72
698.055	56.69
698.241	56.73
698.426	56.69
698.611	56.68
698.797	56.72
698.982	56.72
699.167	56.78
699.353	56.81
699.538	56.81
699.723	56.86
699.909	56.91
700.094	56.99
700.279	56.99
700.464	57.05
700.649	57.08
700.835	57.15
701.02	57.22
701.205	57.23
701.39	57.34
701.575	57.43
701.76	57.47
701.945	57.55
702.13	57.57
702.316	57.64
702.501	57.65
702.686	57.72
702.871	57.79
703.056	57.88
703.241	57.91
703.426	57.93
703.611	57.99
703.796	58.11
703.98	58.08
704.165	58.13
704.35	58.15
704.535	58.17
704.72	58.22
704.905	58.1
705.09	58.15
705.275	58.17
705.459	58.21
705.644	58.24
705.829	58.18
706.014	58.29
706.198	58.34
706.383	58.37
706.568	58.48
706.753	58.49
706.937	58.55
707.122	58.54
707.307	58.62
707.491	58.65
707.676	58.6
707.86	58.66
708.045	58.72
708.23	58.73
708.414	58.74
708.599	58.72
708.783	58.71
708.968	58.81
709.152	58.77
709.337	58.71
709.521	58.71
709.706	58.79
709.89	58.86
710.075	58.81
710.259	58.9
710.443	58.97
710.628	59.06
710.812	59.15
710.997	59.11
711.181	59.27
711.365	59.32
711.55	59.29
711.734	59.31
711.918	59.23
712.102	59.28
712.287	59.26
712.471	59.3
712.655	59.3
712.839	59.21
713.023	59.26
713.208	59.28
713.392	59.28
713.576	59.35
713.76	59.4
713.944	59.45
714.128	59.47
714.312	59.54
714.496	59.5
714.68	59.49
714.864	59.68
715.048	59.7
715.232	59.69
715.416	59.76
715.6	59.73
715.784	59.69
715.968	59.7
716.152	59.74
716.336	59.7
716.52	59.85
716.704	59.88
716.888	59.83
717.072	59.85
717.256	59.79
717.439	59.81
717.623	59.86
717.807	59.97
717.991	60.04
718.174	60.05
718.358	60.07
718.542	60.01
718.726	60.08
718.909	60.09
719.093	60.14
719.277	60.25
719.46	60.31
719.644	60.37
719.828	60.33
720.011	60.33
720.195	60.33
720.378	60.31
720.562	60.36
720.746	60.43
720.929	60.51
721.113	60.56
721.296	60.58
721.48	60.58
721.663	60.72
721.846	60.73
722.03	60.8
722.213	60.85
722.397	60.98
722.58	60.96
722.764	60.86
722.947	60.87
723.13	60.82
723.314	60.89
723.497	60.89
723.68	60.78
723.863	60.85
724.047	60.95
724.23	61.01
724.413	61.02
724.596	61.05
724.78	61.11
724.963	61.22
725.146	61.21
725.329	61.14
725.512	61.19
725.695	61.21
725.879	61.32
726.062	61.21
726.245	61.28
726.428	61.24
726.611	61.27
726.794	61.3
726.977	61.23
727.16	61.24
727.343	61.32
727.526	61.37
727.709	61.48
727.892	61.37
728.075	61.42
728.258	61.38
728.441	61.49
728.624	61.54
728.806	61.54
728.989	61.61
729.172	61.68
729.355	61.67
729.538	61.67
729.721	61.61
729.903	61.57
730.086	61.64
730.269	61.68
730.452	61.81
730.634	61.77
730.817	61.88
731	61.85
731.182	61.91
731.365	61.92
731.548	61.96
731.73	61.99
731.913	62.11
732.095	62.08
732.278	62.13
732.461	62.11
732.643	62.24
732.826	62.2
733.008	62.26
733.191	62.26
733.373	62.39
733.556	62.39
733.738	62.42
733.921	62.38
734.103	62.46
734.285	62.5
734.468	62.37
734.65	62.3
734.833	62.32
735.015	62.3
735.197	62.29
735.38	62.25
735.562	62.28
735.744	62.29
735.926	62.34
736.109	62.34
736.291	62.21
736.473	62.37
736.655	62.4
736.838	62.5
737.02	62.52
737.202	62.57
737.384	62.58
737.566	62.61
737.748	62.61
737.93	62.69
738.113	62.63
738.295	62.87
738.477	62.81
738.659	62.88
738.841	62.84
739.023	62.85
739.205	62.89
739.387	62.89
739.569	62.86
739.751	62.95
739.933	63.03
740.114	63.06
740.296	63.04
740.478	63.06
740.66	63.13
740.842	63.25
741.024	63.38
741.206	63.45
741.387	63.61
741.569	63.77
741.751	63.72
741.933	63.64
742.115	63.79
742.296	63.81
742.478	63.88
742.66	63.93
742.841	63.94
743.023	63.96
743.205	63.93
743.386	63.77
743.568	63.67
743.75	63.73
743.931	63.8
744.113	63.68
744.294	63.72
744.476	63.79
744.657	63.76
744.839	63.79
745.02	63.71
745.202	63.75
745.383	63.82
745.565	63.79
745.746	63.84
745.928	63.84
746.109	64.01
746.291	64.02
746.472	64.04
746.653	64.08
746.835	64.02
747.016	64.13
747.197	64.23
747.379	64.27
747.56	64.38
747.741	64.37
747.922	64.37
748.104	64.35
748.285	64.28
748.466	64.23
748.647	64.27
748.828	64.37
749.01	64.46
749.191	64.44
749.372	64.4
749.553	64.51
749.734	64.57
749.915	64.67
750.096	64.63
750.277	64.55
750.458	64.66
750.639	64.54
750.82	64.55
751.001	64.45
751.182	64.5
751.363	64.7
751.544	64.65
751.725	64.64
751.906	64.59
752.087	64.69
752.268	64.93
752.449	64.91
752.63	64.99
752.81	64.92
752.991	64.99
753.172	64.87
753.353	64.7
753.534	64.72
753.714	64.79
753.895	64.74
754.076	64.58
754.256	64.57
754.437	64.44
754.618	64.41
754.798	64.32
754.979	64.33
755.16	64.39
755.34	64.5
755.521	64.52
755.702	64.58
755.882	64.77
756.063	65
756.243	64.87
756.424	65.17
756.604	65.12
756.785	65.27
756.965	65.3
757.146	65.4
757.326	65.43
757.507	65.5
757.687	65.57
757.867	65.54
758.048	65.48
758.228	65.54
758.408	65.43
758.589	65.59
758.769	65.63
758.949	65.68
759.13	65.77
759.31	65.8
759.49	65.67
759.671	65.5
759.851	65.5
760.031	65.57
760.211	65.56
760.391	65.6
760.572	65.66
760.752	65.7
760.932	65.73
761.112	65.69
761.292	65.71
761.472	65.89
761.652	65.97
761.832	66.11
762.012	66.08
762.192	66.07
762.372	65.99
762.552	65.84
762.732	65.72
762.912	65.68
763.092	65.56
763.272	65.5
763.452	65.4
763.632	65.54
763.812	65.51
763.992	65.51
764.172	65.59
764.351	65.64
764.531	65.79
764.711	65.86
764.891	65.89
765.071	66.03
765.25	66.21
765.43	66.21
765.61	66.16
765.79	66.11
765.969	66.12
766.149	66.12
766.329	66.2
766.508	66.24
766.688	66.35
766.867	66.43
767.047	66.38
767.227	66.29
767.406	66.44
767.586	66.46
767.765	66.5
767.945	66.66
768.124	66.82
768.304	66.89
768.483	66.78
768.663	66.69
768.842	66.67
769.022	66.65
769.201	66.68
769.38	66.78
769.56	66.88
769.739	66.91
769.919	66.72
770.098	66.64
770.277	66.47
770.457	66.55
770.636	66.75
770.815	66.75
770.994	66.83
771.174	66.84
771.353	66.81
771.532	66.76
771.711	66.94
771.89	67.03
772.07	67.08
772.249	67.17
772.428	67.24
772.607	67.1
772.786	67.08
772.965	67.13
773.144	67.12
773.323	66.98
773.502	66.84
773.681	66.79
773.86	66.81
774.039	66.86
774.218	67.02
774.397	66.87
774.576	67.02
774.755	67.14
774.934	67.26
775.113	67.35
775.292	67.62
775.471	67.74
775.65	67.88
775.828	68.01
776.007	67.86
776.186	67.78
776.365	67.92
776.544	67.8
776.722	67.89
776.901	67.81
777.08	67.7
777.258	67.66
777.437	67.85
777.616	67.78
777.795	67.71
777.973	67.88
778.152	67.79
778.33	67.8
778.509	67.89
778.688	67.77
778.866	67.79
779.045	67.82
779.223	67.79
779.402	67.84
779.58	67.77
779.759	67.86
779.937	67.89
780.116	67.96
780.294	68.07
780.473	68.12
780.651	68.15
780.829	68.18
781.008	68.13
781.186	68.13
781.364	68.05
781.543	68.15
781.721	68.14
781.899	67.98
782.078	68.04
782.256	68.22
782.434	68.2
782.612	68.3
782.791	68.24
782.969	68.33
783.147	68.52
783.325	68.58
783.503	68.77
783.681	68.76
783.86	69.02
784.038	68.97
784.216	68.71
784.394	68.71
784.572	68.7
784.75	68.71
784.928	68.81
785.106	68.55
785.284	68.4
785.462	68.44
785.64	68.56
785.818	68.61
785.996	68.68
786.174	68.78
786.352	68.78
786.53	68.57
786.707	68.63
786.885	68.59
787.063	68.72
787.241	68.71
787.419	68.34
787.597	68.24
787.774	68.12
787.952	68.3
788.13	68.25
788.308	68.27
788.485	68.38
788.663	68.38
788.841	68.51
789.018	68.58
789.196	68.71
789.374	68.8
789.551	68.83
789.729	68.76
789.906	68.63
790.084	68.69
790.262	68.7
790.439	68.74
790.617	68.85
790.794	68.75
790.972	68.75
791.149	68.76
791.327	68.77
791.504	68.87
791.681	69.1
791.859	69.26
792.036	69.44
792.214	69.57
792.391	69.62
792.568	69.58
792.746	69.75
792.923	69.72
793.1	69.68
793.278	69.69
793.455	69.54
793.632	69.52
793.809	69.47
793.987	69.2
794.164	69.18
794.341	69.16
794.518	69.3
794.695	69.05
794.872	69.17
795.05	69.17
795.227	69.34
795.404	69.44
795.581	69.31
795.758	69.11
795.935	69.24
796.112	69.22
796.289	69.13
796.466	69
796.643	69.04
796.82	68.87
796.997	69.07
797.174	68.96
797.351	68.94
797.528	69.05
797.704	69.22
797.881	69.17
798.058	69.22
798.235	69.52
798.412	69.46
798.589	69.65
798.765	69.67
798.942	69.52
799.119	69.61
799.296	69.7
799.472	69.81
799.649	69.77
799.826	69.94
800.003	69.88
800.179	69.76
800.356	69.86
800.533	69.88
800.709	69.89
800.886	69.94
801.062	69.91
801.239	69.9
801.415	69.83
801.592	69.83
801.769	69.64
801.945	69.61
802.122	69.65
802.298	69.71
802.474	69.8
802.651	69.93
802.827	70.03
803.004	70.18
803.18	70.26
803.356	70.32
803.533	70.43
803.709	70.6
803.886	70.8
804.062	70.73
804.238	70.81
804.414	70.63
804.591	70.67
804.767	70.46
804.943	70.43
805.119	70.25
805.296	70.16
805.472	70.2
805.648	70.32
805.824	70.5
806	70.32
806.176	70.2
806.352	70.33
806.529	70.33
806.705	70.36
806.881	70.43
807.057	70.63
807.233	70.73
807.409	70.63
807.585	70.41
807.761	70.12
807.937	70.48
808.113	70.52
808.289	70.58
808.464	70.72
808.64	70.78
808.816	70.99
808.992	70.9
809.168	70.67
809.344	70.79
809.52	70.88
809.695	70.97
809.871	70.81
810.047	70.85
810.223	70.77
810.398	70.69
810.574	70.74
810.75	70.59
810.926	70.8
811.101	71.03
811.277	71.08
811.453	71.35
811.628	71.52
811.804	71.7
811.979	71.78
812.155	71.83
812.331	71.79
812.506	72.08
812.682	72.02
812.857	71.88
813.033	71.8
813.208	71.79
813.384	71.59
813.559	71.41
813.734	71.28
813.91	71.36
814.085	71.31
814.261	71.53
814.436	71.28
814.611	71.35
814.787	71.51
814.962	71.76
815.137	71.66
815.313	71.68
815.488	71.59
815.663	71.74
815.838	71.62
816.014	71.64
816.189	71.62
816.364	71.82
816.539	71.65
816.714	71.53
816.89	71.48
817.065	71.7
817.24	71.81
817.415	72.1
817.59	71.93
817.765	72.07
817.94	72.16
818.115	71.97
818.29	71.73
818.465	71.99
818.64	72.09
818.815	71.77
818.99	71.46
819.165	71.26
819.34	71.1
819.515	71.08
819.69	70.85
819.865	70.79
820.039	70.73
820.214	70.73
820.389	70.64
820.564	70.42
820.739	70.53
820.913	70.61
821.088	70.53
821.263	70.57
821.438	70.4
821.612	70.31
821.787	70.18
821.962	70.07
822.136	69.9
822.311	69.73
822.486	69.74
822.66	69.66
822.835	69.66
823.009	69.72
823.184	69.77
823.359	69.91
823.533	70.03
823.708	70.12
823.882	70.25
824.057	70.42
824.231	70.62
824.405	70.82
824.58	71.1
824.754	71.28
824.929	71.46
825.103	71.57
825.277	71.71
825.452	71.83
825.626	71.89
825.801	71.96
825.975	72.06
826.149	72.14
826.323	72.12
826.498	72.01
826.672	71.97
826.846	71.83
827.02	71.66
827.195	71.51
827.369	71.4
827.543	71.43
827.717	71.36
827.891	71.37
828.065	71.31
828.239	71.37
828.413	71.48
828.587	71.56
828.762	71.7
828.936	71.9
829.11	72.05
829.284	72.22
829.458	72.35
829.632	72.6
829.805	72.65
829.979	72.83
830.153	72.92
830.327	72.88
830.501	73.04
830.675	73
830.849	73.12
831.023	73
831.196	72.94
831.37	72.9
831.544	72.74
831.718	72.87
831.892	72.66
832.065	72.71
832.239	72.87
832.413	72.92
832.586	72.9
832.76	72.74
832.934	72.7
833.107	72.52
833.281	72.39
833.455	72.23
833.628	71.93
833.802	71.83
833.975	71.62
834.149	71.55
834.322	71.42
834.496	71.54
834.67	71.66
834.843	71.71
835.016	71.74
835.19	71.78
835.363	72.02
835.537	72.26
835.71	72.37
835.884	72.58
836.057	72.86
836.23	73.03
836.404	73.04
836.577	73.04
836.75	73.18
836.923	73.43
837.097	73.69
837.27	73.77
837.443	73.6
837.616	73.79
837.79	73.86
837.963	73.4
838.136	73.29
838.309	73.6
838.482	73.69
838.655	73.85
838.829	73.89
839.002	74.17
839.175	73.83
839.348	74.24
839.521	74.18
839.694	74.07
839.867	74.46
840.04	74.63
840.213	74.18
840.386	74.09
840.559	73.85
840.732	73.61
840.905	73.35
841.077	73.44
841.25	73.36
841.423	73.56
841.596	73.76
841.769	73.8
841.942	74.04
842.114	74.37
842.287	74.5
842.46	74.63
842.633	74.98
842.806	75.05
842.978	75.12
843.151	75.38
843.324	75.34
843.496	75.13
843.669	75.13
843.842	74.84
844.014	74.52
844.187	74.84
844.359	75.11
844.532	74.96
844.704	75.11
844.877	75.2
845.05	75.37
845.222	75.42
845.395	75.68
845.567	75.73
845.739	75.93
845.912	76.29
846.084	75.88
846.257	75.48
846.429	75.63
846.601	75
846.774	75.14
846.946	74.99
847.119	75.33
847.291	75.54
847.463	75.6
847.635	75.64
847.808	75.61
847.98	75.83
848.152	76.51
848.324	76.75
848.497	77.31
848.669	77.24
848.841	77.41
849.013	77.31
849.185	76.98
849.357	77.1
849.529	77.07
849.701	77.24
849.873	77.22
850.046	76.68
850.218	76.9
850.39	77.13
850.562	77.77
850.734	77.13
850.906	76.2
851.077	76.18
851.249	76.55
851.421	76.78
851.593	76.33
851.765	76.68
851.937	77.1
852.109	76.32
852.281	76.25
852.452	75.63
852.624	76.27
852.796	77.41
852.968	77.56
853.14	77.04
853.311	77
853.483	77.45
853.655	77.46
853.826	77.3
853.998	77.69
854.17	77.8
854.341	77.84
854.513	78.2
854.685	78.09
854.856	78.24
855.028	79.18
855.199	79.17
855.371	78.87
855.542	79.12
855.714	79.96
855.885	79.97
856.057	80.07
856.228	80.19
856.4	79.5
856.571	80.01
856.743	79.89
856.914	78.95
857.085	78.6
857.257	79.23
857.428	79.16
857.599	78.17
857.771	77.98
857.942	77.16
858.113	77.29
858.284	77.56
858.456	76.87
858.627	76.82
858.798	76.79
858.969	77.48
859.141	77.28
859.312	77.24
859.483	77.13
859.654	77.35
859.825	78.24
859.996	78.51
860.167	78.14
860.338	78.34
860.509	78.51
860.68	79
860.851	79.12
861.022	79.12
861.193	79.21
861.364	79.4
861.535	80.33
861.706	80.29
861.877	79.9
862.048	80.32
862.219	80.22
862.39	80.48
862.561	80.36
862.731	79.85
862.902	79.82
863.073	79.12
863.244	78.85
863.415	77.41
863.585	78.08
863.756	78.17
863.927	78.23
864.097	78.64
864.268	78.23
864.439	78.51
864.609	79.02
864.78	78.99
864.951	79.23
865.121	79.71
865.292	79.89
865.463	78.9
865.633	79.14
865.804	79.29
865.974	78.66
866.145	79.09
866.315	79.5
866.486	79.04
866.656	79.05
866.826	79.22
866.997	78.99
867.167	79.77
867.338	80.67
867.508	79.87
867.678	79.63
867.849	80.27
868.019	79.96
868.189	79.41
868.36	79.73
868.53	80.26
868.7	80.76
868.87	80.66
869.041	80.63
869.211	80.62
869.381	81.93
869.551	81.93
869.721	81.61
869.891	81.39
870.062	81.06
870.232	80.92
870.402	80.45
870.572	79.58
870.742	80.38
870.912	79.96
871.082	79.53
871.252	79.81
871.422	80
871.592	80.65
871.762	80.52
871.932	80.57
872.102	80.45
872.272	80.9
872.442	81.72
872.611	81.37
872.781	81.54
872.951	81.18
873.121	80.31
873.291	80.17
873.461	79.63
873.63	80.05
873.8	80.94
873.97	81.16
874.14	81.44
874.309	81.12
874.479	81.05
874.649	80.97
874.818	81.85
874.988	81.8
875.158	81.45
875.327	81.65
875.497	82.23
875.666	81.88
875.836	82.28
876.005	81.9
876.175	82.28
876.344	82.42
876.514	82.53
876.683	82.11
876.853	82.54
877.022	82.36
877.192	82.01
877.361	81.81
877.531	81.64
877.7	81.55
877.869	81.7
878.039	81.7
878.208	81.74
878.377	81.42
878.547	81.37
878.716	80.81
878.885	80.56
879.054	80.51
879.224	79.88
879.393	79.08
879.562	79.28
879.731	78.73
879.9	78.48
880.069	78.3
880.239	78.47
880.408	78.19
880.577	78.13
880.746	78.46
880.915	78.32
881.084	78.18
881.253	78.08
881.422	77.22
881.591	76.74
881.76	76.17
881.929	75.93
882.098	75.71
882.267	75.52
882.436	75.41
882.605	75.4
882.773	75.37
882.942	75.37
883.111	75.43
883.28	75.64
883.449	75.77
883.618	75.97
883.786	76.07
883.955	76.06
884.124	76.14
884.293	76.28
884.461	76.34
884.63	76.53
884.799	76.72
884.967	76.94
885.136	76.95
885.305	77.06
885.473	77.1
885.642	77.15
885.81	77.62
885.979	77.5
886.148	77.56
886.316	77.93
886.485	77.89
886.653	78.08
886.822	78.12
886.99	78.16
887.158	78.08
887.327	78.11
887.495	78.15
887.664	77.77
887.832	78.46
888	78.57
888.169	78.43
888.337	78.81
888.505	78.66
888.674	78.59
888.842	78.86
889.01	79.42
889.178	79.56
889.347	79.83
889.515	80.24
889.683	80.71
889.851	81.25
