Data from Bird_1_Reflection_1.txt Node
Date: Fri Jan 31 09:36:23 MST 2020
User: Lab User
Spectrometer: USB4J01344
Trigger mode: 0
Integration Time (sec): 1.047400E-1
Scans to average: 20
Electric dark correction enabled: false
Nonlinearity correction enabled: false
Boxcar width: 5
XAxis mode: Wavelengths
Number of Pixels in Spectrum: 3648
>>>>>Begin Spectral Data<<<<<
177.498	-169.4
177.717	-151.65
177.936	-196.35
178.155	-174.97
178.374	-222.52
178.593	-246.14
178.812	-404.16
179.031	-633.45
179.251	-740.62
179.47	-1190.56
179.689	-1438.46
179.908	7906.67
180.127	407.66
180.346	301.71
180.565	213.98
180.784	173.7
181.003	147.83
181.222	148.38
181.441	134.78
181.66	116.16
181.879	106.8
182.098	98.71
182.316	94.85
182.535	95
182.754	96.89
182.973	98.22
183.192	100.28
183.411	104.26
183.63	107.53
183.849	106.02
184.067	107.76
184.286	104.84
184.505	104.42
184.724	107.18
184.943	105.12
185.161	102.54
185.38	101.68
185.599	101.49
185.818	101.49
186.036	98.24
186.255	98.24
186.474	96.58
186.693	97.14
186.911	99.61
187.13	99.34
187.349	104.35
187.567	103.92
187.786	101.85
188.004	100.11
188.223	100.4
188.442	103.85
188.66	103.31
188.879	102.96
189.097	102.91
189.316	102.43
189.535	100.87
189.753	106.73
189.972	108.97
190.19	115.1
190.409	112.52
190.627	114.33
190.846	109.59
191.064	111.27
191.283	109.54
191.501	109.4
191.719	109.76
191.938	109.05
192.156	99.42
192.375	93.11
192.593	86.84
192.811	91.53
193.03	94.48
193.248	97.26
193.467	95.84
193.685	96.31
193.903	91.7
194.121	92.58
194.34	92.51
194.558	93.36
194.776	95.67
194.995	99.45
195.213	94.61
195.431	85.82
195.649	82.16
195.868	79.62
196.086	83.71
196.304	85.9
196.522	82.24
196.74	78.29
196.958	76.43
197.177	74.73
197.395	72.53
197.613	76.75
197.831	80.34
198.049	80.71
198.267	83.02
198.485	79.61
198.703	81.85
198.921	85.93
199.139	90.08
199.358	89.43
199.576	91.21
199.794	92.7
200.012	92.2
200.23	94.24
200.448	94.15
200.666	92.09
200.883	94.08
201.101	93.39
201.319	90.12
201.537	91.06
201.755	92.77
201.973	96.83
202.191	91.16
202.409	89.91
202.627	85.67
202.845	85.71
203.062	89.23
203.28	86.32
203.498	83.27
203.716	84.74
203.934	83.31
204.151	82.15
204.369	75.85
204.587	77.99
204.805	75.66
205.022	82.48
205.24	84.07
205.458	78.91
205.676	80.97
205.893	85.88
206.111	82.87
206.329	82.69
206.546	83.95
206.764	83.94
206.982	84.29
207.199	88.27
207.417	81.47
207.634	81.04
207.852	82.01
208.07	82.6
208.287	82.86
208.505	84.75
208.722	81.46
208.94	82.13
209.157	83.77
209.375	84.52
209.592	81.36
209.81	81.32
210.027	80.36
210.245	82.69
210.462	82.35
210.68	81.78
210.897	83.01
211.115	86.13
211.332	83.43
211.549	81.52
211.767	85.21
211.984	86.41
212.201	85.58
212.419	88.1
212.636	88.6
212.854	87.72
213.071	86.12
213.288	80.97
213.505	82.69
213.723	84.44
213.94	88.29
214.157	86.66
214.374	84.06
214.592	86.03
214.809	88
215.026	84.83
215.243	85.36
215.461	86.3
215.678	85.48
215.895	82.65
216.112	84.27
216.329	81.13
216.546	80.24
216.763	85.94
216.981	82.76
217.198	78.63
217.415	78.46
217.632	77.01
217.849	77.16
218.066	82.71
218.283	83.98
218.5	77.68
218.717	75.96
218.934	76.77
219.151	72.86
219.368	75.87
219.585	73.07
219.802	76.87
220.019	80.22
220.236	77.5
220.453	74.57
220.67	75.61
220.887	79.59
221.103	78.88
221.32	73.16
221.537	75.54
221.754	76.43
221.971	76.51
222.188	72.65
222.405	70.54
222.621	70.66
222.838	72.3
223.055	68.9
223.272	69.58
223.488	69.17
223.705	70.48
223.922	70.85
224.139	69.34
224.355	73.05
224.572	72.91
224.789	71.81
225.005	68.82
225.222	68.03
225.439	68.85
225.655	69.57
225.872	67.56
226.089	66.03
226.305	63.85
226.522	62.49
226.738	57.17
226.955	54.66
227.172	50.15
227.388	49.01
227.605	46.36
227.821	44.48
228.038	39.66
228.254	40.44
228.471	40.47
228.687	38.27
228.904	37.13
229.12	37.7
229.337	38.16
229.553	39.12
229.77	39.34
229.986	39.43
230.202	39.02
230.419	41.09
230.635	41.03
230.851	41.31
231.068	42.61
231.284	42.83
231.501	43.2
231.717	41.9
231.933	42.01
232.149	41.97
232.366	41.91
232.582	41.22
232.798	39.86
233.015	38.53
233.231	37.4
233.447	38.34
233.663	37.65
233.879	37.06
234.096	36.77
234.312	36.09
234.528	35.24
234.744	34.93
234.96	35.34
235.176	35.55
235.393	35.15
235.609	34.78
235.825	33.26
236.041	32.84
236.257	31.92
236.473	31.85
236.689	32.38
236.905	32.39
237.121	31.67
237.337	30.91
237.553	30.01
237.769	29.8
237.985	30.46
238.201	30.72
238.417	30.65
238.633	30.16
238.849	29.83
239.065	28.48
239.281	27.81
239.497	27.38
239.713	26.83
239.928	26.73
240.144	26.28
240.36	25.58
240.576	24.61
240.792	24.44
241.008	24.3
241.223	23.61
241.439	23.29
241.655	23
241.871	22.78
242.087	22.83
242.302	22.6
242.518	22.63
242.734	22.63
242.95	22.78
243.165	22.76
243.381	22.84
243.597	23.08
243.812	23.46
244.028	23.77
244.244	24.07
244.459	23.9
244.675	24.18
244.89	24.21
245.106	23.81
245.322	23.3
245.537	22.8
245.753	22.38
245.968	22.13
246.184	21.81
246.399	21.61
246.615	21.42
246.83	21.42
247.046	21.4
247.261	21.37
247.477	21.34
247.692	21.48
247.908	21.54
248.123	21.55
248.339	21.66
248.554	21.86
248.769	22.15
248.985	22.51
249.2	22.68
249.416	22.87
249.631	22.91
249.846	22.93
250.062	22.85
250.277	23.02
250.492	23.36
250.707	23.25
250.923	22.84
251.138	22.67
251.353	22.45
251.569	22.34
251.784	22.24
251.999	22.36
252.214	22.52
252.429	22.49
252.645	22.51
252.86	22.49
253.075	22.48
253.29	22.68
253.505	22.69
253.72	22.83
253.935	23.13
254.151	23.34
254.366	23.41
254.581	23.58
254.796	23.6
255.011	23.49
255.226	23.3
255.441	23.53
255.656	23.56
255.871	23.54
256.086	23.33
256.301	23.06
256.516	22.66
256.731	22.41
256.946	22.25
257.161	22.27
257.376	22.18
257.591	22.1
257.806	21.93
258.02	21.67
258.235	21.46
258.45	21.32
258.665	21.1
258.88	20.88
259.095	20.66
259.31	20.45
259.524	20.41
259.739	20.37
259.954	20.32
260.169	20.31
260.383	20.29
260.598	20.27
260.813	20.24
261.028	20.32
261.242	20.44
261.457	20.58
261.672	20.84
261.886	20.86
262.101	21
262.316	20.91
262.53	20.87
262.745	20.87
262.96	20.98
263.174	21.1
263.389	21.05
263.603	21.1
263.818	21.04
264.033	20.9
264.247	20.94
264.462	21.07
264.676	21.31
264.891	21.36
265.105	21.42
265.32	21.24
265.534	21.05
265.749	21.02
265.963	20.84
266.178	20.96
266.392	20.85
266.606	20.86
266.821	20.67
267.035	20.66
267.25	20.56
267.464	20.52
267.678	20.6
267.893	20.62
268.107	20.52
268.321	20.59
268.536	20.48
268.75	20.5
268.964	20.45
269.179	20.49
269.393	18.91
269.607	18.93
269.821	18.92
270.036	18.77
270.25	18.65
270.464	18.59
270.678	18.51
270.892	18.42
271.106	18.43
271.321	18.38
271.535	18.31
271.749	19.35
271.963	19.3
272.177	19.18
272.391	19.19
272.605	19.12
272.819	19.22
273.033	19.25
273.248	19.31
273.462	19.35
273.676	19.4
273.89	19.41
274.104	19.49
274.318	19.45
274.532	19.59
274.746	19.6
274.96	19.76
275.173	19.69
275.387	19.63
275.601	19.64
275.815	19.7
276.029	19.62
276.243	19.66
276.457	19.67
276.671	19.74
276.885	19.61
277.098	19.56
277.312	19.53
277.526	19.48
277.74	19.49
277.954	19.44
278.167	19.43
278.381	19.5
278.595	19.5
278.809	19.53
279.022	19.45
279.236	19.47
279.45	19.46
279.663	19.42
279.877	19.46
280.091	19.5
280.304	19.58
280.518	19.49
280.732	19.38
280.945	19.32
281.159	19.15
281.373	19.2
281.586	19.27
281.8	19.27
282.013	19.31
282.227	19.31
282.44	19.24
282.654	19.13
282.867	19.09
283.081	19.17
283.294	19.15
283.508	19.23
283.721	19.15
283.935	19.09
284.148	19.12
284.362	19.05
284.575	18.99
284.789	18.95
285.002	18.94
285.215	19
285.429	18.97
285.642	19
285.855	19.04
286.069	19.07
286.282	19.18
286.495	19.16
286.709	19.26
286.922	19.39
287.135	19.51
287.348	19.64
287.562	19.76
287.775	19.85
287.988	19.94
288.201	20.02
288.415	20.17
288.628	20.18
288.841	20.23
289.054	20.23
289.267	20.21
289.48	20.29
289.694	20.31
289.907	20.27
290.12	20.28
290.333	20.34
290.546	20.41
290.759	20.42
290.972	20.48
291.185	20.58
291.398	20.68
291.611	20.81
291.824	20.89
292.037	21
292.25	21.16
292.463	21.34
292.676	21.42
292.889	21.46
293.102	21.57
293.315	21.68
293.528	21.8
293.741	21.82
293.954	21.87
294.166	21.9
294.379	21.91
294.592	22.01
294.805	22.02
295.018	22.12
295.231	22.14
295.443	22.13
295.656	22.19
295.869	22.24
296.082	22.28
296.295	22.31
296.507	22.28
296.72	22.34
296.933	22.27
297.145	22.31
297.358	22.27
297.571	22.38
297.783	22.41
297.996	22.41
298.209	22.39
298.421	22.41
298.634	22.44
298.847	22.58
299.059	22.65
299.272	22.69
299.484	22.72
299.697	22.89
299.91	22.91
300.122	22.98
300.335	23.09
300.547	23.16
300.76	23.29
300.972	23.3
301.185	23.28
301.397	23.29
301.609	23.41
301.822	23.41
302.034	23.44
302.247	23.44
302.459	23.52
302.672	23.46
302.884	23.57
303.096	23.56
303.309	23.6
303.521	23.72
303.733	23.76
303.946	23.76
304.158	23.85
304.37	23.88
304.583	23.87
304.795	23.9
305.007	23.96
305.219	24.01
305.432	24.05
305.644	24.13
305.856	24.21
306.068	24.26
306.28	24.32
306.493	24.37
306.705	24.37
306.917	24.48
307.129	24.55
307.341	24.6
307.553	24.64
307.765	24.68
307.977	24.76
308.189	24.65
308.402	24.67
308.614	24.68
308.826	24.65
309.038	24.72
309.25	24.78
309.462	24.74
309.674	24.74
309.886	24.71
310.098	24.71
310.31	24.69
310.522	24.77
310.733	24.81
310.945	24.87
311.157	24.93
311.369	24.93
311.581	24.94
311.793	25.02
312.005	25.05
312.217	25.13
312.428	25.17
312.64	25.2
312.852	25.31
313.064	25.38
313.276	25.44
313.487	25.49
313.699	25.57
313.911	25.58
314.123	25.6
314.334	25.74
314.546	25.76
314.758	25.84
314.97	25.86
315.181	25.82
315.393	25.89
315.604	25.9
315.816	26.05
316.028	26.08
316.239	26.12
316.451	26.14
316.663	26.09
316.874	26.16
317.086	26.19
317.297	26.15
317.509	26.1
317.72	26.13
317.932	26.17
318.143	26.12
318.355	26.17
318.566	26.27
318.778	26.36
318.989	26.36
319.201	26.34
319.412	26.33
319.624	26.48
319.835	26.53
320.046	26.61
320.258	26.51
320.469	26.57
320.68	26.62
320.892	26.56
321.103	26.62
321.314	26.68
321.526	26.68
321.737	26.77
321.948	26.75
322.16	26.79
322.371	26.73
322.582	26.76
322.793	26.68
323.005	26.66
323.216	26.67
323.427	26.6
323.638	26.58
323.849	26.58
324.06	26.51
324.272	26.51
324.483	26.5
324.694	26.52
324.905	26.64
325.116	26.65
325.327	26.67
325.538	26.67
325.749	26.66
325.96	26.73
326.171	26.81
326.382	26.89
326.593	26.93
326.804	26.94
327.015	26.94
327.226	26.94
327.437	26.95
327.648	26.94
327.859	27
328.07	27.15
328.281	27.17
328.492	27.16
328.703	27.21
328.914	27.18
329.125	27.25
329.335	27.22
329.546	27.19
329.757	27.25
329.968	27.29
330.179	27.28
330.39	27.29
330.6	27.28
330.811	27.22
331.022	27.17
331.233	27.24
331.443	27.25
331.654	27.3
331.865	27.34
332.075	27.41
332.286	27.42
332.497	27.44
332.707	27.38
332.918	27.4
333.129	27.46
333.339	27.46
333.55	27.47
333.761	27.47
333.971	27.54
334.182	27.49
334.392	27.47
334.603	27.43
334.813	27.42
335.024	27.45
335.234	27.48
335.445	27.46
335.655	27.45
335.866	27.47
336.076	27.44
336.287	27.4
336.497	27.46
336.708	27.5
336.918	27.56
337.128	27.65
337.339	27.69
337.549	27.68
337.759	27.78
337.97	27.86
338.18	27.84
338.39	27.89
338.601	27.98
338.811	28
339.021	27.92
339.232	27.93
339.442	27.89
339.652	27.92
339.862	27.97
340.073	28.03
340.283	28.1
340.493	28.18
340.703	28.19
340.913	28.15
341.124	28.11
341.334	28.24
341.544	28.24
341.754	28.22
341.964	28.22
342.174	28.21
342.384	28.21
342.594	28.17
342.804	28.2
343.014	28.23
343.224	28.22
343.435	28.21
343.645	28.15
343.855	28.16
344.065	28.22
344.274	28.2
344.484	28.19
344.694	28.13
344.904	28.12
345.114	28.06
345.324	28.06
345.534	28.04
345.744	28.15
345.954	28.16
346.164	28.15
346.374	28.09
346.583	28.06
346.793	28.13
347.003	28.16
347.213	28.14
347.423	28.17
347.632	28.16
347.842	28.22
348.052	28.19
348.262	28.25
348.471	28.23
348.681	28.3
348.891	28.31
349.1	28.34
349.31	28.44
349.52	28.49
349.729	28.54
349.939	28.6
350.149	28.62
350.358	28.6
350.568	28.58
350.778	28.65
350.987	28.64
351.197	28.73
351.406	28.81
351.616	28.82
351.825	28.86
352.035	28.81
352.244	28.76
352.454	28.8
352.663	28.87
352.873	28.9
353.082	28.93
353.292	28.99
353.501	28.96
353.711	28.85
353.92	28.78
354.129	28.76
354.339	28.77
354.548	28.77
354.757	28.8
354.967	28.8
355.176	28.82
355.385	28.81
355.595	28.75
355.804	28.76
356.013	28.75
356.223	28.78
356.432	28.75
356.641	28.79
356.85	28.82
357.059	28.8
357.269	28.76
357.478	28.78
357.687	28.76
357.896	28.85
358.105	28.83
358.314	28.9
358.524	28.92
358.733	28.99
358.942	28.96
359.151	28.95
359.36	28.97
359.569	29.03
359.778	29.06
359.987	29.1
360.196	29.04
360.405	29.11
360.614	29.05
360.823	29.04
361.032	29.07
361.241	29.11
361.45	29.15
361.659	29.15
361.868	29.11
362.077	29.05
362.286	29.08
362.495	29.14
362.704	29.13
362.912	29.16
363.121	29.16
363.33	29.14
363.539	29.11
363.748	29.13
363.957	29.13
364.165	29.21
364.374	29.3
364.583	29.25
364.792	29.25
365	29.24
365.209	29.3
365.418	29.32
365.626	29.35
365.835	29.42
366.044	29.4
366.253	29.46
366.461	29.42
366.67	29.39
366.878	29.46
367.087	29.44
367.296	29.47
367.504	29.42
367.713	29.44
367.921	29.47
368.13	29.44
368.338	29.45
368.547	29.45
368.755	29.49
368.964	29.5
369.172	29.54
369.381	29.61
369.589	29.62
369.798	29.69
370.006	29.69
370.215	29.69
370.423	29.71
370.632	29.72
370.84	29.72
371.048	29.73
371.257	29.76
371.465	29.77
371.673	29.79
371.882	29.8
372.09	29.8
372.298	29.83
372.507	29.9
372.715	29.91
372.923	29.92
373.131	29.89
373.34	29.92
373.548	29.92
373.756	29.91
373.964	29.92
374.172	29.92
374.381	29.92
374.589	29.94
374.797	29.92
375.005	29.93
375.213	29.92
375.421	29.89
375.629	29.88
375.837	29.96
376.045	29.92
376.254	29.9
376.462	29.92
376.67	29.91
376.878	29.86
377.086	29.86
377.294	29.87
377.502	29.89
377.71	29.99
377.918	30.01
378.126	29.98
378.333	30.03
378.541	30.08
378.749	30.07
378.957	30.07
379.165	30.12
379.373	30.12
379.581	30.1
379.789	30.2
379.996	30.25
380.204	30.29
380.412	30.32
380.62	30.35
380.828	30.34
381.035	30.36
381.243	30.43
381.451	30.43
381.659	30.46
381.866	30.54
382.074	30.52
382.282	30.48
382.489	30.48
382.697	30.52
382.905	30.51
383.112	30.51
383.32	30.52
383.528	30.52
383.735	30.5
383.943	30.5
384.15	30.49
384.358	30.47
384.565	30.51
384.773	30.52
384.981	30.45
385.188	30.47
385.396	30.5
385.603	30.5
385.811	30.44
386.018	30.4
386.225	30.41
386.433	30.39
386.64	30.39
386.848	30.39
387.055	30.37
387.263	30.37
387.47	30.34
387.677	30.3
387.885	30.31
388.092	30.38
388.299	30.48
388.507	30.51
388.714	30.53
388.921	30.57
389.128	30.56
389.336	30.54
389.543	30.63
389.75	30.64
389.957	30.7
390.165	30.73
390.372	30.76
390.579	30.76
390.786	30.79
390.993	30.79
391.2	30.79
391.408	30.85
391.615	30.9
391.822	30.88
392.029	30.91
392.236	30.91
392.443	30.93
392.65	30.94
392.857	30.94
393.064	30.98
393.271	30.99
393.478	31.02
393.685	30.99
393.892	31.02
394.099	30.98
394.306	30.99
394.513	30.95
394.72	30.93
394.927	30.93
395.134	30.93
395.341	30.91
395.547	30.96
395.754	30.95
395.961	30.97
396.168	30.94
396.375	31.01
396.582	31.03
396.788	31.08
396.995	31.11
397.202	31.09
397.409	31.11
397.616	31.14
397.822	31.12
398.029	31.13
398.236	31.22
398.442	31.2
398.649	31.18
398.856	31.23
399.062	31.23
399.269	31.25
399.476	31.33
399.682	31.34
399.889	31.35
400.096	31.38
400.302	31.4
400.509	31.36
400.715	31.43
400.922	31.47
401.128	31.45
401.335	31.48
401.541	31.53
401.748	31.52
401.954	31.53
402.161	31.57
402.367	31.59
402.574	31.59
402.78	31.61
402.986	31.62
403.193	31.61
403.399	31.65
403.606	31.68
403.812	31.67
404.018	31.69
404.225	31.73
404.431	31.72
404.637	31.7
404.844	31.73
405.05	31.79
405.256	31.82
405.462	31.86
405.669	31.85
405.875	31.85
406.081	31.89
406.287	31.91
406.494	31.92
406.7	31.92
406.906	31.96
407.112	31.98
407.318	31.97
407.524	31.97
407.73	31.97
407.937	32.02
408.143	32.04
408.349	32.06
408.555	32.08
408.761	32.13
408.967	32.19
409.173	32.22
409.379	32.27
409.585	32.3
409.791	32.33
409.997	32.34
410.203	32.37
410.409	32.37
410.615	32.36
410.821	32.35
411.027	32.35
411.233	32.37
411.438	32.39
411.644	32.39
411.85	32.39
412.056	32.39
412.262	32.45
412.468	32.5
412.673	32.55
412.879	32.6
413.085	32.68
413.291	32.71
413.497	32.73
413.702	32.76
413.908	32.78
414.114	32.84
414.319	32.89
414.525	32.9
414.731	32.91
414.937	32.94
415.142	32.95
415.348	32.94
415.553	32.95
415.759	33
415.965	33.01
416.17	33.02
416.376	33.01
416.581	33.03
416.787	33.03
416.992	33.01
417.198	33.01
417.404	33.03
417.609	33.03
417.815	33.04
418.02	33.03
418.225	33.03
418.431	33.07
418.636	33.09
418.842	33.11
419.047	33.11
419.253	33.16
419.458	33.18
419.663	33.19
419.869	33.21
420.074	33.23
420.279	33.25
420.485	33.29
420.69	33.29
420.895	33.31
421.101	33.34
421.306	33.38
421.511	33.36
421.716	33.37
421.922	33.38
422.127	33.41
422.332	33.42
422.537	33.46
422.742	33.46
422.947	33.47
423.153	33.47
423.358	33.48
423.563	33.48
423.768	33.52
423.973	33.53
424.178	33.56
424.383	33.54
424.588	33.55
424.793	33.58
424.998	33.6
425.203	33.62
425.408	33.64
425.613	33.66
425.818	33.69
426.023	33.73
426.228	33.77
426.433	33.79
426.638	33.84
426.843	33.9
427.048	33.88
427.253	33.92
427.458	33.98
427.663	34.02
427.867	34.05
428.072	34.09
428.277	34.1
428.482	34.14
428.687	34.18
428.892	34.22
429.096	34.23
429.301	34.29
429.506	34.31
429.711	34.34
429.915	34.39
430.12	34.4
430.325	34.41
430.529	34.43
430.734	34.44
430.939	34.46
431.143	34.47
431.348	34.46
431.553	34.47
431.757	34.46
431.962	34.48
432.166	34.47
432.371	34.49
432.575	34.5
432.78	34.51
432.984	34.5
433.189	34.51
433.394	34.54
433.598	34.53
433.802	34.55
434.007	34.58
434.211	34.57
434.416	34.59
434.62	34.59
434.825	34.62
435.029	34.67
435.233	34.71
435.438	34.72
435.642	34.74
435.846	34.82
436.051	34.82
436.255	34.86
436.459	34.9
436.664	34.91
436.868	34.95
437.072	34.94
437.276	34.95
437.481	34.97
437.685	35.01
437.889	34.99
438.093	34.99
438.298	35.02
438.502	35.01
438.706	34.99
438.91	35.04
439.114	35.02
439.318	35.04
439.522	35.03
439.726	35.02
439.931	35.04
440.135	35.07
440.339	35.09
440.543	35.08
440.747	35.09
440.951	35.1
441.155	35.09
441.359	35.1
441.563	35.11
441.767	35.12
441.971	35.17
442.175	35.17
442.378	35.19
442.582	35.2
442.786	35.25
442.99	35.28
443.194	35.31
443.398	35.34
443.602	35.37
443.806	35.41
444.009	35.46
444.213	35.44
444.417	35.44
444.621	35.49
444.825	35.53
445.028	35.5
445.232	35.51
445.436	35.51
445.639	35.52
445.843	35.56
446.047	35.57
446.251	35.56
446.454	35.59
446.658	35.61
446.861	35.6
447.065	35.6
447.269	35.63
447.472	35.68
447.676	35.71
447.879	35.74
448.083	35.76
448.287	35.76
448.49	35.78
448.694	35.78
448.897	35.8
449.101	35.84
449.304	35.87
449.507	35.91
449.711	35.9
449.914	35.93
450.118	35.94
450.321	35.96
450.525	36.01
450.728	36.06
450.931	36.11
451.135	36.1
451.338	36.09
451.541	36.12
451.745	36.13
451.948	36.15
452.151	36.17
452.355	36.18
452.558	36.17
452.761	36.2
452.964	36.22
453.168	36.24
453.371	36.29
453.574	36.34
453.777	36.36
453.98	36.39
454.183	36.42
454.387	36.42
454.59	36.45
454.793	36.48
454.996	36.5
455.199	36.53
455.402	36.57
455.605	36.59
455.808	36.58
456.011	36.58
456.214	36.58
456.417	36.61
456.62	36.63
456.823	36.65
457.026	36.65
457.229	36.68
457.432	36.7
457.635	36.7
457.838	36.71
458.041	36.72
458.244	36.75
458.447	36.76
458.65	36.77
458.852	36.77
459.055	36.79
459.258	36.82
459.461	36.81
459.664	36.8
459.867	36.81
460.069	36.84
460.272	36.86
460.475	36.86
460.678	36.87
460.88	36.89
461.083	36.92
461.286	36.9
461.488	36.9
461.691	36.91
461.894	36.94
462.096	36.97
462.299	36.95
462.502	36.98
462.704	37.01
462.907	37.04
463.109	37.04
463.312	37.07
463.514	37.13
463.717	37.21
463.92	37.25
464.122	37.28
464.325	37.33
464.527	37.38
464.729	37.41
464.932	37.45
465.134	37.48
465.337	37.53
465.539	37.54
465.742	37.56
465.944	37.53
466.146	37.56
466.349	37.57
466.551	37.58
466.753	37.57
466.956	37.59
467.158	37.59
467.36	37.6
467.563	37.65
467.765	37.67
467.967	37.68
468.169	37.74
468.372	37.74
468.574	37.77
468.776	37.79
468.978	37.85
469.18	37.84
469.383	37.9
469.585	37.96
469.787	37.99
469.989	38.03
470.191	38.07
470.393	38.1
470.595	38.12
470.797	38.15
470.999	38.16
471.201	38.16
471.403	38.17
471.606	38.14
471.808	38.16
472.009	38.13
472.211	38.13
472.413	38.12
472.615	38.14
472.817	38.19
473.019	38.22
473.221	38.25
473.423	38.26
473.625	38.3
473.827	38.35
474.029	38.35
474.231	38.41
474.432	38.42
474.634	38.45
474.836	38.45
475.038	38.46
475.24	38.46
475.441	38.46
475.643	38.47
475.845	38.49
476.046	38.53
476.248	38.52
476.45	38.53
476.652	38.57
476.853	38.59
477.055	38.61
477.257	38.63
477.458	38.66
477.66	38.69
477.861	38.73
478.063	38.75
478.265	38.74
478.466	38.8
478.668	38.82
478.869	38.82
479.071	38.85
479.272	38.85
479.474	38.89
479.675	38.9
479.877	38.9
480.078	38.91
480.28	38.92
480.481	38.95
480.682	38.91
480.884	38.92
481.085	38.94
481.287	38.94
481.488	38.94
481.689	38.92
481.891	38.97
482.092	38.96
482.293	38.95
482.495	38.98
482.696	39.01
482.897	39.08
483.098	39.15
483.3	39.23
483.501	39.33
483.702	39.38
483.903	39.43
484.104	39.45
484.306	39.48
484.507	39.51
484.708	39.53
484.909	39.54
485.11	39.53
485.311	39.51
485.512	39.46
485.713	39.39
485.914	39.36
486.116	39.33
486.317	39.32
486.518	39.33
486.719	39.35
486.92	39.4
487.121	39.44
487.322	39.49
487.523	39.55
487.723	39.59
487.924	39.63
488.125	39.67
488.326	39.71
488.527	39.73
488.728	39.75
488.929	39.75
489.13	39.74
489.331	39.76
489.531	39.74
489.732	39.73
489.933	39.73
490.134	39.74
490.335	39.74
490.535	39.75
490.736	39.79
490.937	39.83
491.137	39.88
491.338	39.93
491.539	39.94
491.74	39.97
491.94	39.99
492.141	40.03
492.341	40.05
492.542	40.07
492.743	40.09
492.943	40.11
493.144	40.1
493.344	40.1
493.545	40.11
493.746	40.12
493.946	40.15
494.147	40.18
494.347	40.21
494.548	40.23
494.748	40.25
494.949	40.28
495.149	40.29
495.349	40.37
495.55	40.39
495.75	40.41
495.951	40.47
496.151	40.54
496.351	40.56
496.552	40.59
496.752	40.63
496.952	40.66
497.153	40.71
497.353	40.73
497.553	40.72
497.754	40.75
497.954	40.8
498.154	40.81
498.354	40.82
498.554	40.85
498.755	40.88
498.955	40.89
499.155	40.93
499.355	40.98
499.555	41.03
499.755	41.04
499.956	41.06
500.156	41.08
500.356	41.1
500.556	41.12
500.756	41.17
500.956	41.19
501.156	41.22
501.356	41.21
501.556	41.24
501.756	41.24
501.956	41.27
502.156	41.29
502.356	41.3
502.556	41.34
502.756	41.39
502.956	41.4
503.156	41.44
503.356	41.46
503.555	41.5
503.755	41.5
503.955	41.53
504.155	41.57
504.355	41.63
504.555	41.64
504.754	41.62
504.954	41.64
505.154	41.68
505.354	41.7
505.553	41.71
505.753	41.71
505.953	41.71
506.153	41.72
506.352	41.73
506.552	41.74
506.752	41.78
506.951	41.81
507.151	41.84
507.351	41.86
507.55	41.88
507.75	41.95
507.949	42.01
508.149	42.03
508.348	42.08
508.548	42.1
508.747	42.13
508.947	42.16
509.146	42.2
509.346	42.2
509.545	42.2
509.745	42.21
509.944	42.24
510.144	42.26
510.343	42.27
510.543	42.28
510.742	42.33
510.941	42.34
511.141	42.37
511.34	42.38
511.539	42.4
511.739	42.43
511.938	42.45
512.137	42.45
512.337	42.45
512.536	42.49
512.735	42.52
512.934	42.54
513.134	42.55
513.333	42.6
513.532	42.62
513.731	42.65
513.93	42.67
514.129	42.72
514.329	42.75
514.528	42.78
514.727	42.8
514.926	42.82
515.125	42.83
515.324	42.85
515.523	42.87
515.722	42.93
515.921	42.96
516.12	42.97
516.319	42.99
516.518	43.03
516.717	43.04
516.916	43.08
517.115	43.09
517.314	43.1
517.513	43.14
517.712	43.15
517.911	43.17
518.11	43.18
518.309	43.2
518.507	43.21
518.706	43.23
518.905	43.26
519.104	43.28
519.303	43.31
519.501	43.35
519.7	43.38
519.899	43.4
520.098	43.43
520.296	43.45
520.495	43.48
520.694	43.51
520.893	43.51
521.091	43.55
521.29	43.57
521.489	43.6
521.687	43.62
521.886	43.65
522.084	43.7
522.283	43.72
522.482	43.76
522.68	43.81
522.879	43.82
523.077	43.86
523.276	43.89
523.474	43.92
523.673	43.96
523.871	44.01
524.07	44.02
524.268	44.03
524.467	44.05
524.665	44.07
524.863	44.09
525.062	44.14
525.26	44.17
525.459	44.2
525.657	44.23
525.855	44.23
526.054	44.23
526.252	44.28
526.45	44.28
526.649	44.31
526.847	44.33
527.045	44.34
527.243	44.37
527.442	44.4
527.64	44.47
527.838	44.53
528.036	44.59
528.234	44.66
528.433	44.7
528.631	44.76
528.829	44.81
529.027	44.84
529.225	44.88
529.423	44.9
529.621	44.94
529.819	44.93
530.017	44.94
530.215	44.97
530.414	44.96
530.612	44.96
530.81	44.94
531.008	44.93
531.206	44.93
531.403	44.92
531.601	44.92
531.799	44.92
531.997	44.93
532.195	44.97
532.393	44.99
532.591	45.05
532.789	45.1
532.987	45.14
533.184	45.2
533.382	45.25
533.58	45.29
533.778	45.33
533.976	45.37
534.173	45.41
534.371	45.42
534.569	45.43
534.767	45.45
534.964	45.44
535.162	45.46
535.36	45.46
535.557	45.47
535.755	45.51
535.953	45.53
536.15	45.55
536.348	45.6
536.546	45.64
536.743	45.67
536.941	45.69
537.138	45.72
537.336	45.76
537.533	45.79
537.731	45.8
537.928	45.83
538.126	45.85
538.323	45.87
538.521	45.86
538.718	45.9
538.916	45.95
539.113	45.97
539.311	45.97
539.508	46.01
539.705	46.04
539.903	46.08
540.1	46.13
540.297	46.2
540.495	46.26
540.692	46.32
540.889	46.37
541.087	46.42
541.284	46.48
541.481	46.56
541.678	46.59
541.876	46.62
542.073	46.65
542.27	46.69
542.467	46.7
542.664	46.73
542.862	46.76
543.059	46.78
543.256	46.78
543.453	46.76
543.65	46.74
543.847	46.72
544.044	46.75
544.241	46.78
544.438	46.77
544.635	46.78
544.832	46.77
545.029	46.78
545.226	46.8
545.423	46.82
545.62	46.88
545.817	46.91
546.014	46.96
546.211	47
546.408	47.01
546.605	47.04
546.802	47.08
546.999	47.14
547.196	47.17
547.392	47.22
547.589	47.25
547.786	47.27
547.983	47.3
548.18	47.32
548.376	47.34
548.573	47.38
548.77	47.4
548.967	47.44
549.163	47.46
549.36	47.5
549.557	47.49
549.753	47.52
549.95	47.54
550.147	47.58
550.343	47.63
550.54	47.68
550.737	47.7
550.933	47.75
551.13	47.78
551.326	47.81
551.523	47.82
551.719	47.88
551.916	47.9
552.112	47.93
552.309	47.98
552.505	48.01
552.702	48.04
552.898	48.09
553.095	48.13
553.291	48.19
553.487	48.23
553.684	48.26
553.88	48.28
554.077	48.32
554.273	48.36
554.469	48.39
554.666	48.41
554.862	48.45
555.058	48.46
555.255	48.5
555.451	48.52
555.647	48.54
555.843	48.57
556.039	48.62
556.236	48.65
556.432	48.69
556.628	48.72
556.824	48.77
557.02	48.77
557.217	48.8
557.413	48.82
557.609	48.8
557.805	48.81
558.001	48.85
558.197	48.87
558.393	48.91
558.589	48.96
558.785	48.99
558.981	49.01
559.177	49.04
559.373	49.06
559.569	49.11
559.765	49.18
559.961	49.26
560.157	49.28
560.353	49.31
560.549	49.34
560.745	49.34
560.941	49.39
561.136	49.4
561.332	49.45
561.528	49.51
561.724	49.53
561.92	49.54
562.116	49.54
562.311	49.59
562.507	49.61
562.703	49.64
562.899	49.68
563.094	49.71
563.29	49.73
563.486	49.73
563.681	49.72
563.877	49.8
564.073	49.87
564.268	49.91
564.464	49.9
564.66	49.94
564.855	49.95
565.051	49.98
565.246	50.01
565.442	50.07
565.637	50.12
565.833	50.19
566.028	50.18
566.224	50.15
566.419	50.2
566.615	50.25
566.81	50.27
567.006	50.29
567.201	50.31
567.397	50.3
567.592	50.32
567.787	50.33
567.983	50.32
568.178	50.33
568.373	50.35
568.569	50.38
568.764	50.37
568.959	50.36
569.155	50.39
569.35	50.4
569.545	50.45
569.74	50.44
569.936	50.49
570.131	50.55
570.326	50.59
570.521	50.64
570.716	50.65
570.912	50.74
571.107	50.8
571.302	50.82
571.497	50.87
571.692	50.94
571.887	50.98
572.082	51.04
572.277	51.06
572.472	51.1
572.667	51.13
572.862	51.17
573.057	51.16
573.252	51.22
573.447	51.28
573.642	51.32
573.837	51.33
574.032	51.33
574.227	51.32
574.422	51.3
574.617	51.33
574.812	51.35
575.007	51.37
575.202	51.39
575.396	51.39
575.591	51.39
575.786	51.41
575.981	51.42
576.176	51.49
576.37	51.54
576.565	51.58
576.76	51.6
576.955	51.61
577.149	51.64
577.344	51.69
577.539	51.79
577.733	51.84
577.928	51.85
578.123	51.86
578.317	51.88
578.512	51.9
578.706	51.96
578.901	52.01
579.096	52.08
579.29	52.13
579.485	52.12
579.679	52.09
579.874	52.08
580.068	52.15
580.263	52.19
580.457	52.23
580.652	52.29
580.846	52.3
581.04	52.32
581.235	52.33
581.429	52.35
581.624	52.42
581.818	52.45
582.012	52.52
582.207	52.55
582.401	52.61
582.595	52.59
582.79	52.59
582.984	52.64
583.178	52.64
583.372	52.67
583.567	52.69
583.761	52.71
583.955	52.79
584.149	52.82
584.344	52.8
584.538	52.85
584.732	52.9
584.926	52.99
585.12	53.03
585.314	53.06
585.508	53.09
585.702	53.11
585.896	53.2
586.091	53.22
586.285	53.25
586.479	53.29
586.673	53.3
586.867	53.35
587.061	53.35
587.255	53.37
587.449	53.41
587.642	53.42
587.836	53.43
588.03	53.38
588.224	53.37
588.418	53.37
588.612	53.41
588.806	53.45
589	53.47
589.193	53.49
589.387	53.46
589.581	53.49
589.775	53.53
589.969	53.58
590.162	53.6
590.356	53.61
590.55	53.64
590.744	53.65
590.937	53.66
591.131	53.71
591.325	53.74
591.518	53.8
591.712	53.84
591.906	53.9
592.099	53.89
592.293	53.92
592.486	53.99
592.68	54.04
592.874	54.05
593.067	54.05
593.261	54.03
593.454	54.09
593.648	54.16
593.841	54.17
594.035	54.12
594.228	54.17
594.421	54.24
594.615	54.28
594.808	54.31
595.002	54.35
595.195	54.41
595.388	54.43
595.582	54.44
595.775	54.44
595.968	54.46
596.162	54.5
596.355	54.57
596.548	54.56
596.742	54.55
596.935	54.57
597.128	54.59
597.321	54.58
597.515	54.62
597.708	54.61
597.901	54.64
598.094	54.68
598.287	54.73
598.48	54.7
598.674	54.74
598.867	54.77
599.06	54.8
599.253	54.81
599.446	54.85
599.639	54.85
599.832	54.88
600.025	54.91
600.218	54.92
600.411	54.97
600.604	54.99
600.797	55.02
600.99	55.07
601.183	55.1
601.376	55.15
601.569	55.14
601.762	55.21
601.955	55.22
602.147	55.26
602.34	55.3
602.533	55.26
602.726	55.31
602.919	55.32
603.112	55.34
603.304	55.32
603.497	55.34
603.69	55.41
603.883	55.44
604.075	55.47
604.268	55.49
604.461	55.53
604.654	55.58
604.846	55.61
605.039	55.64
605.231	55.66
605.424	55.73
605.617	55.77
605.809	55.79
606.002	55.81
606.194	55.85
606.387	55.85
606.58	55.91
606.772	55.91
606.965	55.94
607.157	55.96
607.35	56.01
607.542	56.02
607.735	56.03
607.927	56.03
608.119	56.03
608.312	56.08
608.504	56.16
608.697	56.16
608.889	56.18
609.081	56.21
609.274	56.28
609.466	56.29
609.658	56.3
609.851	56.33
610.043	56.38
610.235	56.44
610.427	56.48
610.62	56.5
610.812	56.51
611.004	56.58
611.196	56.63
611.388	56.61
611.581	56.62
611.773	56.64
611.965	56.68
612.157	56.73
612.349	56.77
612.541	56.78
612.733	56.77
612.925	56.8
613.117	56.76
613.309	56.76
613.501	56.83
613.693	56.86
613.885	56.87
614.077	56.9
614.269	56.92
614.461	56.97
614.653	56.92
614.845	56.93
615.037	56.98
615.229	57.02
615.421	57.08
615.613	57.04
615.805	57.08
615.996	57.14
616.188	57.19
616.38	57.24
616.572	57.22
616.764	57.27
616.955	57.33
617.147	57.34
617.339	57.36
617.531	57.34
617.722	57.43
617.914	57.46
618.106	57.5
618.297	57.48
618.489	57.45
618.681	57.5
618.872	57.56
619.064	57.59
619.255	57.63
619.447	57.68
619.639	57.72
619.83	57.72
620.022	57.74
620.213	57.72
620.405	57.75
620.596	57.8
620.788	57.81
620.979	57.89
621.171	57.92
621.362	57.96
621.553	57.97
621.745	58.03
621.936	58.07
622.128	58.11
622.319	58.16
622.51	58.15
622.702	58.16
622.893	58.26
623.084	58.2
623.276	58.28
623.467	58.3
623.658	58.33
623.849	58.34
624.041	58.36
624.232	58.36
624.423	58.41
624.614	58.44
624.805	58.51
624.996	58.48
625.188	58.51
625.379	58.49
625.57	58.51
625.761	58.53
625.952	58.55
626.143	58.61
626.334	58.62
626.525	58.63
626.716	58.69
626.907	58.72
627.098	58.75
627.289	58.81
627.48	58.85
627.671	58.83
627.862	58.9
628.053	58.89
628.244	58.93
628.435	58.95
628.626	59.01
628.816	59.03
629.007	59
629.198	59.05
629.389	59.07
629.58	59.07
629.771	59.14
629.961	59.11
630.152	59.19
630.343	59.18
630.534	59.2
630.724	59.23
630.915	59.28
631.106	59.34
631.296	59.32
631.487	59.33
631.678	59.36
631.868	59.38
632.059	59.42
632.25	59.42
632.44	59.4
632.631	59.48
632.821	59.47
633.012	59.49
633.202	59.48
633.393	59.57
633.583	59.58
633.774	59.63
633.964	59.62
634.155	59.62
634.345	59.68
634.536	59.71
634.726	59.77
634.916	59.86
635.107	59.88
635.297	59.89
635.488	59.9
635.678	59.93
635.868	59.89
636.059	59.96
636.249	60.03
636.439	60.05
636.629	60.09
636.82	60.1
637.01	60.09
637.2	60.13
637.39	60.17
637.581	60.12
637.771	60.13
637.961	60.19
638.151	60.19
638.341	60.19
638.531	60.2
638.721	60.21
638.911	60.24
639.102	60.31
639.292	60.25
639.482	60.26
639.672	60.32
639.862	60.3
640.052	60.35
640.242	60.41
640.432	60.44
640.622	60.47
640.812	60.47
641.002	60.43
641.191	60.36
641.381	60.44
641.571	60.45
641.761	60.47
641.951	60.56
642.141	60.51
642.331	60.45
642.52	60.45
642.71	60.41
642.9	60.44
643.09	60.52
643.28	60.56
643.469	60.56
643.659	60.62
643.849	60.64
644.038	60.64
644.228	60.71
644.418	60.82
644.607	60.83
644.797	60.92
644.987	60.95
645.176	60.95
645.366	60.99
645.556	61.05
645.745	61.11
645.935	61.13
646.124	61.14
646.314	61.18
646.503	61.14
646.693	61.2
646.882	61.19
647.072	61.18
647.261	61.2
647.45	61.21
647.64	61.18
647.829	61.18
648.019	61.17
648.208	61.2
648.397	61.21
648.587	61.26
648.776	61.2
648.965	61.22
649.155	61.32
649.344	61.4
649.533	61.42
649.723	61.44
649.912	61.45
650.101	61.46
650.29	61.49
650.479	61.56
650.669	61.58
650.858	61.68
651.047	61.72
651.236	61.67
651.425	61.62
651.614	61.62
651.803	61.67
651.992	61.68
652.182	61.73
652.371	61.82
652.56	61.81
652.749	61.82
652.938	61.79
653.127	61.77
653.316	61.83
653.505	61.86
653.694	61.89
653.882	61.89
654.071	61.94
654.26	61.97
654.449	61.94
654.638	61.93
654.827	61.94
655.016	61.96
655.205	62.01
655.393	62.02
655.582	62.02
655.771	62.03
655.96	62.05
656.149	62.06
656.337	62.11
656.526	62.15
656.715	62.18
656.903	62.23
657.092	62.24
657.281	62.25
657.469	62.27
657.658	62.33
657.847	62.33
658.035	62.36
658.224	62.34
658.412	62.29
658.601	62.3
658.79	62.25
658.978	62.25
659.167	62.3
659.355	62.32
659.544	62.29
659.732	62.3
659.921	62.33
660.109	62.34
660.297	62.37
660.486	62.45
660.674	62.42
660.863	62.47
661.051	62.5
661.239	62.51
661.428	62.52
661.616	62.58
661.804	62.55
661.993	62.57
662.181	62.58
662.369	62.62
662.557	62.62
662.746	62.7
662.934	62.73
663.122	62.74
663.31	62.75
663.498	62.77
663.687	62.83
663.875	62.89
664.063	62.91
664.251	62.96
664.439	62.97
664.627	62.94
664.815	62.9
665.003	62.91
665.191	62.88
665.379	62.95
665.567	62.96
665.755	62.91
665.943	62.92
666.131	62.99
666.319	62.96
666.507	62.95
666.695	62.99
666.883	62.99
667.071	63.01
667.259	63.06
667.447	63.04
667.635	63.1
667.823	63.16
668.01	63.2
668.198	63.14
668.386	63.24
668.574	63.28
668.761	63.32
668.949	63.42
669.137	63.45
669.325	63.49
669.512	63.48
669.7	63.53
669.888	63.52
670.075	63.51
670.263	63.55
670.451	63.53
670.638	63.53
670.826	63.53
671.013	63.57
671.201	63.59
671.389	63.6
671.576	63.64
671.764	63.62
671.951	63.69
672.139	63.73
672.326	63.72
672.514	63.74
672.701	63.72
672.889	63.79
673.076	63.8
673.263	63.84
673.451	63.84
673.638	63.92
673.825	63.91
674.013	63.93
674.2	63.96
674.387	64.01
674.575	63.94
674.762	63.98
674.949	64.02
675.137	63.97
675.324	63.97
675.511	64.02
675.698	64.01
675.885	64.03
676.073	64
676.26	63.99
676.447	64.02
676.634	64.1
676.821	64.07
677.008	64.06
677.195	64.09
677.383	64.08
677.57	64.15
677.757	64.12
677.944	64.19
678.131	64.18
678.318	64.18
678.505	64.24
678.692	64.28
678.879	64.38
679.066	64.35
679.253	64.38
679.439	64.4
679.626	64.37
679.813	64.39
680	64.36
680.187	64.41
680.374	64.47
680.561	64.45
680.747	64.46
680.934	64.47
681.121	64.5
681.308	64.49
681.494	64.5
681.681	64.51
681.868	64.5
682.055	64.48
682.241	64.51
682.428	64.53
682.615	64.55
682.801	64.6
682.988	64.58
683.175	64.64
683.361	64.66
683.548	64.73
683.734	64.77
683.921	64.78
684.107	64.82
684.294	64.87
684.48	64.9
684.667	64.93
684.853	64.89
685.04	64.91
685.226	64.9
685.413	64.91
685.599	64.87
685.786	64.85
685.972	64.89
686.158	64.93
686.345	64.89
686.531	64.89
686.717	64.86
686.904	64.88
687.09	64.98
687.276	65
687.463	64.9
687.649	64.94
687.835	64.94
688.021	64.97
688.208	65.03
688.394	65.06
688.58	65.09
688.766	65.13
688.952	65.18
689.138	65.14
689.324	65.15
689.511	65.31
689.697	65.3
689.883	65.33
690.069	65.4
690.255	65.39
690.441	65.45
690.627	65.45
690.813	65.44
690.999	65.43
691.185	65.48
691.371	65.48
691.557	65.5
691.743	65.53
691.929	65.55
692.115	65.51
692.3	65.52
692.486	65.54
692.672	65.53
692.858	65.66
693.044	65.6
693.23	65.58
693.415	65.56
693.601	65.6
693.787	65.63
693.973	65.59
694.158	65.66
694.344	65.67
694.53	65.65
694.715	65.71
694.901	65.66
695.087	65.78
695.272	65.81
695.458	65.87
695.644	65.77
695.829	65.78
696.015	65.83
696.2	65.75
696.386	65.78
696.571	65.78
696.757	65.78
696.943	65.82
697.128	65.8
697.313	65.73
697.499	65.7
697.684	65.73
697.87	65.67
698.055	65.75
698.241	65.79
698.426	65.82
698.611	65.78
698.797	65.82
698.982	65.75
699.167	65.75
699.353	65.83
699.538	65.89
699.723	65.96
699.909	66
700.094	66.02
700.279	66.07
700.464	66.05
700.649	66.12
700.835	66.09
701.02	66.18
701.205	66.25
701.39	66.27
701.575	66.23
701.76	66.16
701.945	66.24
702.13	66.16
702.316	66.14
702.501	66.19
702.686	66.23
702.871	66.28
703.056	66.26
703.241	66.2
703.426	66.27
703.611	66.36
703.796	66.49
703.98	66.49
704.165	66.59
704.35	66.65
704.535	66.62
704.72	66.57
704.905	66.56
705.09	66.64
705.275	66.7
705.459	66.69
705.644	66.68
705.829	66.6
706.014	66.6
706.198	66.59
706.383	66.69
706.568	66.72
706.753	66.75
706.937	66.74
707.122	66.69
707.307	66.69
707.491	66.66
707.676	66.67
707.86	66.72
708.045	66.81
708.23	66.8
708.414	66.76
708.599	66.69
708.783	66.7
708.968	66.81
709.152	66.87
709.337	66.89
709.521	66.99
709.706	67.02
709.89	66.97
710.075	66.86
710.259	66.93
710.443	66.91
710.628	67
710.812	67.13
710.997	66.99
711.181	66.99
711.365	67.02
711.55	66.96
711.734	66.96
711.918	66.98
712.102	67.06
712.287	67.08
712.471	67.15
712.655	67.16
712.839	67.05
713.023	67.16
713.208	67.17
713.392	67.12
713.576	67.18
713.76	67.25
713.944	67.27
714.128	67.3
714.312	67.3
714.496	67.23
714.68	67.19
714.864	67.3
715.048	67.33
715.232	67.32
715.416	67.38
715.6	67.34
715.784	67.28
715.968	67.28
716.152	67.31
716.336	67.38
716.52	67.45
716.704	67.52
716.888	67.56
717.072	67.56
717.256	67.57
717.439	67.58
717.623	67.64
717.807	67.65
717.991	67.73
718.174	67.7
718.358	67.71
718.542	67.73
718.726	67.78
718.909	67.69
719.093	67.73
719.277	67.79
719.46	67.84
719.644	67.85
719.828	67.82
720.011	67.83
720.195	67.85
720.378	67.78
720.562	67.81
720.746	67.85
720.929	67.9
721.113	67.88
721.296	67.8
721.48	67.78
721.663	67.85
721.846	67.97
722.03	68.08
722.213	68.13
722.397	68.22
722.58	68.24
722.764	68.16
722.947	68.21
723.13	68.22
723.314	68.34
723.497	68.31
723.68	68.25
723.863	68.23
724.047	68.14
724.23	68.11
724.413	68.11
724.596	68.11
724.78	68.19
724.963	68.25
725.146	68.26
725.329	68.13
725.512	68.19
725.695	68.23
725.879	68.25
726.062	68.22
726.245	68.24
726.428	68.32
726.611	68.26
726.794	68.3
726.977	68.2
727.16	68.14
727.343	68.24
727.526	68.22
727.709	68.25
727.892	68.34
728.075	68.52
728.258	68.58
728.441	68.53
728.624	68.57
728.806	68.48
728.989	68.53
729.172	68.62
729.355	68.7
729.538	68.76
729.721	68.69
729.903	68.61
730.086	68.54
730.269	68.48
730.452	68.51
730.634	68.51
730.817	68.63
731	68.65
731.182	68.62
731.365	68.54
731.548	68.47
731.73	68.55
731.913	68.57
732.095	68.57
732.278	68.62
732.461	68.64
732.643	68.63
732.826	68.59
733.008	68.68
733.191	68.68
733.373	68.77
733.556	68.78
733.738	68.79
733.921	68.79
734.103	68.79
734.285	68.8
734.468	68.76
734.65	68.83
734.833	68.86
735.015	68.8
735.197	68.87
735.38	68.89
735.562	68.98
735.744	68.97
735.926	69.08
736.109	69.08
736.291	69.07
736.473	69.06
736.655	69.11
736.838	69.23
737.02	69.2
737.202	69.19
737.384	69.17
737.566	69.17
737.748	69.2
737.93	69.21
738.113	69.21
738.295	69.22
738.477	69.27
738.659	69.25
738.841	69.2
739.023	69.18
739.205	69.2
739.387	69.2
739.569	69.14
739.751	69.17
739.933	69.19
740.114	69.18
740.296	69.34
740.478	69.37
740.66	69.41
740.842	69.39
741.024	69.5
741.206	69.55
741.387	69.61
741.569	69.73
741.751	69.76
741.933	69.71
742.115	69.82
742.296	69.79
742.478	69.78
742.66	69.77
742.841	69.75
743.023	69.69
743.205	69.71
743.386	69.69
743.568	69.69
743.75	69.69
743.931	69.68
744.113	69.66
744.294	69.62
744.476	69.67
744.657	69.73
744.839	69.91
745.02	69.95
745.202	69.96
745.383	69.98
745.565	69.96
745.746	69.92
745.928	70
746.109	70.05
746.291	70.05
746.472	70.04
746.653	69.95
746.835	69.83
747.016	69.81
747.197	69.86
747.379	69.83
747.56	69.86
747.741	69.91
747.922	69.83
748.104	69.86
748.285	69.92
748.466	69.94
748.647	69.94
748.828	70.01
749.01	70.16
749.191	70.11
749.372	70.18
749.553	70.25
749.734	70.29
749.915	70.45
750.096	70.41
750.277	70.41
750.458	70.55
750.639	70.62
750.82	70.65
751.001	70.57
751.182	70.6
751.363	70.69
751.544	70.75
751.725	70.7
751.906	70.73
752.087	70.85
752.268	70.88
752.449	70.84
752.63	70.95
752.81	70.87
752.991	70.94
753.172	70.92
753.353	70.81
753.534	70.67
753.714	70.81
753.895	70.71
754.076	70.55
754.256	70.57
754.437	70.53
754.618	70.38
754.798	70.34
754.979	70.3
755.16	70.3
755.34	70.43
755.521	70.54
755.702	70.46
755.882	70.52
756.063	70.64
756.243	70.61
756.424	70.71
756.604	70.69
756.785	70.9
756.965	71.01
757.146	71.07
757.326	70.97
757.507	70.9
757.687	70.91
757.867	70.88
758.048	70.85
758.228	70.76
758.408	70.58
758.589	70.71
758.769	70.67
758.949	70.53
759.13	70.59
759.31	70.74
759.49	70.78
759.671	70.72
759.851	70.78
760.031	70.75
760.211	70.72
760.391	70.87
760.572	70.86
760.752	70.85
760.932	71.05
761.112	71
761.292	70.94
761.472	71
761.652	71.05
761.832	71.1
762.012	71.19
762.192	71.23
762.372	71.07
762.552	71.02
762.732	70.86
762.912	70.66
763.092	70.62
763.272	70.51
763.452	70.36
763.632	70.46
763.812	70.45
763.992	70.41
764.172	70.48
764.351	70.69
764.531	70.79
764.711	70.84
764.891	70.9
765.071	70.91
765.25	71.06
765.43	71.14
765.61	71.06
765.79	71.03
765.969	71.04
766.149	71.03
766.329	71
766.508	70.9
766.688	71.01
766.867	71.13
767.047	71.29
767.227	71.15
767.406	71.24
767.586	71.25
767.765	71.28
767.945	71.4
768.124	71.55
768.304	71.41
768.483	71.44
768.663	71.4
768.842	71.33
769.022	71.17
769.201	71.2
769.38	71.2
769.56	71.35
769.739	71.26
769.919	71.19
770.098	71.06
770.277	71.07
770.457	71.09
770.636	71.2
770.815	71.08
770.994	71.14
771.174	71.16
771.353	71.26
771.532	71.17
771.711	71.34
771.89	71.36
772.07	71.43
772.249	71.48
772.428	71.62
772.607	71.58
772.786	71.73
772.965	71.75
773.144	71.84
773.323	71.77
773.502	71.82
773.681	71.84
773.86	71.9
774.039	71.97
774.218	71.97
774.397	71.81
774.576	71.85
774.755	71.93
774.934	72.01
775.113	72.18
775.292	72.15
775.471	72.16
775.65	72.17
775.828	72.22
776.007	72.14
776.186	72.05
776.365	72.11
776.544	71.93
776.722	71.87
776.901	71.76
777.08	71.53
777.258	71.71
777.437	71.72
777.616	71.68
777.795	71.72
777.973	71.68
778.152	71.68
778.33	71.61
778.509	71.67
778.688	71.64
778.866	71.7
779.045	71.68
779.223	71.67
779.402	71.71
779.58	71.76
779.759	71.66
779.937	71.64
780.116	71.63
780.294	71.65
780.473	71.77
780.651	71.84
780.829	71.85
781.008	72.03
781.186	72.06
781.364	72.18
781.543	72.22
781.721	72.35
781.899	72.47
782.078	72.62
782.256	72.89
782.434	72.88
782.612	72.99
782.791	73.03
782.969	73.15
783.147	73.2
783.325	73.17
783.503	73.26
783.681	73.34
783.86	73.28
784.038	73.35
784.216	73.21
784.394	73.03
784.572	72.95
784.75	72.94
784.928	72.73
785.106	72.51
785.284	72.35
785.462	72.37
785.64	72.11
785.818	72.24
785.996	72.23
786.174	72.17
786.352	72.42
786.53	72.31
786.707	72.39
786.885	72.46
787.063	72.57
787.241	72.69
787.419	72.48
787.597	72.68
787.774	72.59
787.952	72.61
788.13	72.69
788.308	72.69
788.485	72.54
788.663	72.49
788.841	72.59
789.018	72.57
789.196	72.59
789.374	72.72
789.551	72.67
789.729	72.72
789.906	72.58
790.084	72.73
790.262	72.6
790.439	72.85
790.617	72.9
790.794	72.8
790.972	72.93
791.149	72.7
791.327	72.64
791.504	72.67
791.681	72.69
791.859	72.89
792.036	72.75
792.214	72.92
792.391	72.86
792.568	72.96
792.746	73.15
792.923	73.12
793.1	73.4
793.278	73.49
793.455	73.52
793.632	73.59
793.809	73.49
793.987	73.51
794.164	73.6
794.341	73.74
794.518	73.66
794.695	73.42
794.872	73.53
795.05	73.58
795.227	73.56
795.404	73.66
795.581	73.58
795.758	73.55
795.935	73.56
796.112	73.56
796.289	73.38
796.466	73.27
796.643	73.25
796.82	73.12
796.997	73.15
797.174	73.15
797.351	73.04
797.528	73.1
797.704	73.17
797.881	73.15
798.058	73.13
798.235	73.33
798.412	73.45
798.589	73.6
798.765	73.55
798.942	73.51
799.119	73.51
799.296	73.62
799.472	73.65
799.649	73.67
799.826	73.74
800.003	73.61
800.179	73.63
800.356	73.57
800.533	73.56
800.709	73.66
800.886	73.55
801.062	73.5
801.239	73.39
801.415	73.44
801.592	73.42
801.769	73.29
801.945	73.38
802.122	73.28
802.298	73.18
802.474	73.27
802.651	73.25
802.827	73.47
803.004	73.66
803.18	73.69
803.356	73.59
803.533	73.61
803.709	73.72
803.886	73.68
804.062	73.77
804.238	73.92
804.414	73.82
804.591	73.84
804.767	73.68
804.943	73.56
805.119	73.6
805.296	73.62
805.472	73.58
805.648	73.59
805.824	73.71
806	73.55
806.176	73.68
806.352	73.71
806.529	73.72
806.705	73.69
806.881	73.77
807.057	73.78
807.233	73.76
807.409	73.77
807.585	73.72
807.761	73.72
807.937	73.8
808.113	73.79
808.289	73.93
808.464	74.15
808.64	74.2
808.816	74.46
808.992	74.35
809.168	74.41
809.344	74.54
809.52	74.5
809.695	74.56
809.871	74.7
810.047	74.64
810.223	74.42
810.398	74.15
810.574	74.12
810.75	73.8
810.926	74.06
811.101	74
811.277	73.82
811.453	73.8
811.628	73.9
811.804	74.03
811.979	73.87
812.155	73.96
812.331	73.83
812.506	74.01
812.682	74.06
812.857	74
813.033	73.91
813.208	74.03
813.384	74.22
813.559	74.02
813.734	73.85
813.91	74.16
814.085	74.22
814.261	74.58
814.436	74.38
814.611	74.53
814.787	74.63
814.962	74.79
815.137	74.71
815.313	74.75
815.488	74.72
815.663	74.76
815.838	74.6
816.014	74.45
816.189	74.28
816.364	74.54
816.539	74.33
816.714	74.05
816.89	74.09
817.065	74.48
817.24	74.47
817.415	74.4
817.59	74.32
817.765	74.23
817.94	74.29
818.115	74.37
818.29	74.51
818.465	74.61
818.64	74.95
818.815	74.73
818.99	74.39
819.165	74.25
819.34	74.37
819.515	74.22
819.69	74.31
819.865	74.26
820.039	74.25
820.214	74.03
820.389	73.88
820.564	73.7
820.739	73.74
820.913	73.84
821.088	73.76
821.263	73.62
821.438	73.6
821.612	73.4
821.787	73.29
821.962	73.16
822.136	72.99
822.311	72.82
822.486	72.69
822.66	72.69
822.835	72.69
823.009	72.74
823.184	72.77
823.359	72.82
823.533	72.89
823.708	72.93
823.882	72.99
824.057	73.01
824.231	73.14
824.405	73.27
824.58	73.33
824.754	73.4
824.929	73.37
825.103	73.38
825.277	73.4
825.452	73.46
825.626	73.51
825.801	73.48
825.975	73.69
826.149	73.78
826.323	73.83
826.498	73.89
826.672	73.91
826.846	73.92
827.02	73.88
827.195	73.83
827.369	73.72
827.543	73.68
827.717	73.65
827.891	73.6
828.065	73.59
828.239	73.6
828.413	73.62
828.587	73.61
828.762	73.71
828.936	73.83
829.11	73.93
829.284	74.06
829.458	74.09
829.632	74.31
829.805	74.31
829.979	74.34
830.153	74.46
830.327	74.45
830.501	74.51
830.675	74.59
830.849	74.66
831.023	74.58
831.196	74.58
831.37	74.72
831.544	74.49
831.718	74.71
831.892	74.72
832.065	74.74
832.239	74.96
832.413	74.98
832.586	74.83
832.76	74.7
832.934	74.79
833.107	74.68
833.281	74.58
833.455	74.51
833.628	74.27
833.802	74.27
833.975	74.11
834.149	74.03
834.322	74.09
834.496	74.15
834.67	74.23
834.843	74.2
835.016	74.21
835.19	74.2
835.363	74.28
835.537	74.39
835.71	74.41
835.884	74.54
836.057	74.73
836.23	74.78
836.404	74.91
836.577	74.9
836.75	74.99
836.923	75.12
837.097	75.27
837.27	75.48
837.443	75.65
837.616	75.82
837.79	75.82
837.963	75.79
838.136	75.75
838.309	75.66
838.482	75.67
838.655	75.96
838.829	76.1
839.002	76.33
839.175	76.25
839.348	76.08
839.521	76.31
839.694	76.4
839.867	76.26
840.04	76.01
840.213	76.03
840.386	76.15
840.559	75.96
840.732	75.87
840.905	75.8
841.077	75.9
841.25	76.02
841.423	75.98
841.596	75.87
841.769	75.83
841.942	76
842.114	76.19
842.287	76.17
842.46	76.09
842.633	76.18
842.806	76.46
842.978	76.36
843.151	76.43
843.324	76.27
843.496	76.57
843.669	76.71
843.842	76.91
844.014	76.93
844.187	77.17
844.359	77.29
844.532	77.01
844.704	76.53
844.877	76.54
845.05	76.62
845.222	77.19
845.395	77.23
845.567	77.16
845.739	77.24
845.912	77.02
846.084	77.03
846.257	77.07
846.429	77.49
846.601	77.21
846.774	77.66
846.946	77.64
847.119	77.17
847.291	76.69
847.463	76.79
847.635	76.86
847.808	77.01
847.98	77.09
848.152	77.61
848.324	77.85
848.497	78.36
848.669	78.1
848.841	78.53
849.013	78.44
849.185	79.11
849.357	79.25
849.529	79.35
849.701	80.07
849.873	79.96
850.046	79.93
850.218	79.34
850.39	79.5
850.562	79.75
850.734	79.25
850.906	78.99
851.077	78.34
851.249	78.67
851.421	78.99
851.593	78.38
851.765	78.63
851.937	78.47
852.109	78.39
852.281	77.9
852.452	77.55
852.624	77.52
852.796	78.15
852.968	78.47
853.14	77.87
853.311	77.37
853.483	77.4
853.655	76.81
853.826	76.88
853.998	77.46
854.17	77.97
854.341	77.9
854.513	78.52
854.685	78.66
854.856	78.65
855.028	79.22
855.199	78.89
855.371	78.56
855.542	79.13
855.714	79.17
855.885	79.17
856.057	78.88
856.228	79.38
856.4	78.77
856.571	78.57
856.743	78.74
856.914	78.57
857.085	79.16
857.257	79.87
857.428	79.69
857.599	79.16
857.771	78.61
857.942	78.3
858.113	78.08
858.284	78.74
858.456	78.43
858.627	78.29
858.798	78.04
858.969	78.51
859.141	78.47
859.312	79.15
859.483	79.46
859.654	79.67
859.825	80.37
859.996	80.38
860.167	79.54
860.338	79.81
860.509	80.47
860.68	80.65
860.851	80.14
861.022	80.09
861.193	79.49
861.364	78.9
861.535	79.64
861.706	79.7
861.877	79.91
862.048	80.2
862.219	80.15
862.39	80.26
862.561	80.93
862.731	81.34
862.902	81.04
863.073	80.86
863.244	81.44
863.415	80.66
863.585	81.03
863.756	80.69
863.927	80.95
864.097	81.36
864.268	80.93
864.439	80.53
864.609	80.39
864.78	80.41
864.951	80.24
865.121	80.25
865.292	79.99
865.463	79.37
865.633	79.81
865.804	79.91
865.974	79.27
866.145	79.19
866.315	79.03
866.486	78.91
866.656	79.03
866.826	79.58
866.997	79.61
867.167	80.63
867.338	81.52
867.508	80.83
867.678	80.42
867.849	80.79
868.019	80.51
868.189	80.48
868.36	80.49
868.53	80.59
868.7	80.83
868.87	81.02
869.041	80.96
869.211	80.46
869.381	81.33
869.551	81.56
869.721	81.66
869.891	81.92
870.062	81.98
870.232	81.45
870.402	81.57
870.572	80.94
870.742	81.11
870.912	81.01
871.082	80.82
871.252	80.7
871.422	80.32
871.592	80.7
871.762	80.81
871.932	81.1
872.102	81.52
872.272	81.59
872.442	82.01
872.611	81.01
872.781	80.92
872.951	79.92
873.121	79.56
873.291	80.03
873.461	79.99
873.63	79.6
873.8	80.08
873.97	80.51
874.14	80.76
874.309	81.34
874.479	81.53
874.649	81.31
874.818	82.07
874.988	82.1
875.158	81.78
875.327	81.5
875.497	81.86
875.666	81.43
875.836	81.44
876.005	81.36
876.175	81.1
876.344	81.67
876.514	81.48
876.683	81.52
876.853	81.59
877.022	81.15
877.192	81.28
877.361	81.72
877.531	81.44
877.7	81.08
877.869	81.07
878.039	81.26
878.208	81.57
878.377	82.06
878.547	82.07
878.716	81.39
878.885	81.92
879.054	81.34
879.224	80.42
879.393	80.7
879.562	80.47
879.731	79.65
879.9	78.93
880.069	78.64
880.239	78.65
880.408	78.3
880.577	78.77
880.746	78.53
880.915	78.67
881.084	78.32
881.253	77.44
881.422	77.3
881.591	77.06
881.76	76.58
881.929	76.36
882.098	75.96
882.267	75.87
882.436	75.67
882.605	75.64
882.773	75.54
882.942	75.62
883.111	75.7
883.28	75.71
883.449	75.77
883.618	75.88
883.786	75.87
883.955	75.87
884.124	75.89
884.293	76.03
884.461	76.02
884.63	76.1
884.799	76.26
884.967	76.35
885.136	76.29
885.305	76.4
885.473	76.49
885.642	76.62
885.81	77.1
885.979	77.2
886.148	77.22
886.316	77.48
886.485	77.46
886.653	77.5
886.822	77.73
886.99	78.31
887.158	78.51
887.327	78.84
887.495	78.89
887.664	78.62
887.832	79.02
888	79.1
888.169	79.17
888.337	79.51
888.505	79.28
888.674	79.13
888.842	78.78
889.01	78.57
889.178	78.25
889.347	78.36
889.515	78.26
889.683	78.27
889.851	78.34
