Data from Bird_3_Reflection_3.txt Node
Date: Fri Jan 31 09:39:59 MST 2020
User: Lab User
Spectrometer: USB4J01344
Trigger mode: 0
Integration Time (sec): 1.047400E-1
Scans to average: 20
Electric dark correction enabled: false
Nonlinearity correction enabled: false
Boxcar width: 5
XAxis mode: Wavelengths
Number of Pixels in Spectrum: 3648
>>>>>Begin Spectral Data<<<<<
177.498	-149.74
177.717	-171.02
177.936	-251.04
178.155	-218.91
178.374	-236.91
178.593	-303.31
178.812	-616.14
179.031	-893.53
179.251	-1006.64
179.47	-1542.78
179.689	-1708.33
179.908	9143.33
180.127	379.39
180.346	266.91
180.565	192.19
180.784	161.98
181.003	134.87
181.222	126.02
181.441	118.75
181.66	111.38
181.879	103.67
182.098	98.58
182.316	91.4
182.535	102.23
182.754	100.52
182.973	99.9
183.192	106.04
183.411	100.88
183.63	97.37
183.849	101.55
184.067	98.91
184.286	96.74
184.505	94.35
184.724	96.62
184.943	91.22
185.161	91.29
185.38	88.52
185.599	85.51
185.818	81.19
186.036	85.04
186.255	82.51
186.474	82.16
186.693	84.62
186.911	87.95
187.13	85.59
187.349	88.98
187.567	86.87
187.786	93.42
188.004	93.98
188.223	100.49
188.442	100.48
188.66	102.09
188.879	102.13
189.097	100.89
189.316	99.11
189.535	95.44
189.753	95.15
189.972	97.84
190.19	96.78
190.409	96.97
190.627	99.42
190.846	98.31
191.064	95.75
191.283	93.09
191.501	91.93
191.719	93.96
191.938	99.03
192.156	94.7
192.375	92.08
192.593	89.02
192.811	85.01
193.03	87.06
193.248	88.69
193.467	89.89
193.685	88.91
193.903	89.05
194.121	86.83
194.34	85.64
194.558	89.68
194.776	91.32
194.995	93.31
195.213	95.5
195.431	87.81
195.649	83.42
195.868	78.18
196.086	81.02
196.304	78.93
196.522	76.84
196.74	77.73
196.958	74.06
197.177	73.15
197.395	70.15
197.613	68.22
197.831	75.39
198.049	77.78
198.267	83.5
198.485	85.18
198.703	84.67
198.921	89.29
199.139	93.97
199.358	94.32
199.576	93.52
199.794	96.04
200.012	95.49
200.23	92.93
200.448	94.55
200.666	91.37
200.883	90.78
201.101	92.22
201.319	92.07
201.537	86.61
201.755	89.49
201.973	90.78
202.191	88.44
202.409	89.17
202.627	89.09
202.845	89.36
203.062	93.25
203.28	91.96
203.498	91.19
203.716	92.12
203.934	88.27
204.151	81.75
204.369	78.34
204.587	78.72
204.805	81.23
205.022	83.79
205.24	77.76
205.458	73.6
205.676	75.3
205.893	77.38
206.111	73.32
206.329	76.18
206.546	78.71
206.764	81.69
206.982	81.03
207.199	83.55
207.417	78.45
207.634	82.29
207.852	82.53
208.07	81.77
208.287	79.77
208.505	80.09
208.722	79.06
208.94	82.83
209.157	83.94
209.375	82.01
209.592	76.78
209.81	81.77
210.027	77.62
210.245	76.93
210.462	76.4
210.68	78.92
210.897	78.29
211.115	80.5
211.332	76.46
211.549	74.59
211.767	82.49
211.984	85.05
212.201	80.28
212.419	84.38
212.636	85.98
212.854	84.01
213.071	80.96
213.288	77.18
213.505	75.75
213.723	81.37
213.94	83.67
214.157	79.56
214.374	77.76
214.592	77.39
214.809	75.51
215.026	74.09
215.243	76.16
215.461	76.12
215.678	80.24
215.895	80.97
216.112	76.05
216.329	74.65
216.546	75.64
216.763	76.9
216.981	80.19
217.198	83.39
217.415	82.5
217.632	81.96
217.849	84.22
218.066	85.94
218.283	84.69
218.5	81.58
218.717	80.13
218.934	80.11
219.151	78.54
219.368	77.37
219.585	74.03
219.802	77.3
220.019	77.78
220.236	74.54
220.453	73.57
220.67	73.63
220.887	76.75
221.103	74.88
221.32	70.22
221.537	72.17
221.754	70.12
221.971	69.8
222.188	66.98
222.405	63.51
222.621	65.44
222.838	66.28
223.055	65.68
223.272	64.86
223.488	65.02
223.705	67.96
223.922	67.22
224.139	70.42
224.355	72.18
224.572	73.17
224.789	73.43
225.005	68.19
225.222	67.61
225.439	65.6
225.655	63.89
225.872	61.11
226.089	57.75
226.305	56.01
226.522	52.53
226.738	48.2
226.955	44.12
227.172	41.03
227.388	40.65
227.605	38.43
227.821	36.26
228.038	34.31
228.254	34.39
228.471	33.49
228.687	32.94
228.904	32.57
229.12	32.44
229.337	33.05
229.553	33.57
229.77	33.13
229.986	32.1
230.202	32.43
230.419	33.85
230.635	33.98
230.851	34.49
231.068	34.82
231.284	35.27
231.501	35.35
231.717	35.07
231.933	35.91
232.149	36
232.366	35.89
232.582	35.16
232.798	34.29
233.015	32.59
233.231	31.89
233.447	31.88
233.663	30.56
233.879	30.12
234.096	28.87
234.312	28.32
234.528	28.24
234.744	28.38
234.96	29.12
235.176	28.76
235.393	29.55
235.609	28.59
235.825	27.37
236.041	26.93
236.257	26.55
236.473	26.84
236.689	26.56
236.905	26.09
237.121	25.76
237.337	24.26
237.553	23.89
237.769	23.08
237.985	23.83
238.201	23.55
238.417	23.63
238.633	23.23
238.849	22.89
239.065	21.48
239.281	21.02
239.497	20.31
239.713	20.28
239.928	20.04
240.144	19.53
240.36	18.63
240.576	18.14
240.792	17.53
241.008	17.08
241.223	16.43
241.439	16.15
241.655	15.66
241.871	15.3
242.087	15.15
242.302	14.82
242.518	14.65
242.734	14.5
242.95	14.38
243.165	14.34
243.381	14.23
243.597	14.43
243.812	14.7
244.028	14.84
244.244	14.94
244.459	14.85
244.675	14.94
244.89	15.11
245.106	14.8
245.322	14.45
245.537	14.22
245.753	13.89
245.968	13.4
246.184	13.13
246.399	13.03
246.615	12.86
246.83	12.75
247.046	12.71
247.261	12.62
247.477	12.64
247.692	12.67
247.908	12.58
248.123	12.6
248.339	12.69
248.554	12.82
248.769	12.96
248.985	13.19
249.2	13.45
249.416	13.59
249.631	13.7
249.846	13.8
250.062	14.03
250.277	14.3
250.492	14.49
250.707	14.67
250.923	14.23
251.138	13.97
251.353	13.86
251.569	13.7
251.784	13.6
251.999	13.61
252.214	13.74
252.429	13.75
252.645	13.77
252.86	13.81
253.075	13.87
253.29	14.13
253.505	14.38
253.72	14.57
253.935	14.75
254.151	14.92
254.366	15.24
254.581	15.12
254.796	15.26
255.011	15.34
255.226	15.21
255.441	15.07
255.656	14.97
255.871	14.81
256.086	14.67
256.301	14.51
256.516	14.34
256.731	13.97
256.946	13.8
257.161	13.59
257.376	13.29
257.591	13.19
257.806	12.96
258.02	13.02
258.235	12.75
258.45	12.49
258.665	12.28
258.88	12.12
259.095	11.96
259.31	11.8
259.524	11.64
259.739	11.7
259.954	11.65
260.169	11.62
260.383	11.55
260.598	11.61
260.813	11.65
261.028	11.75
261.242	11.78
261.457	11.9
261.672	12.16
261.886	12.39
262.101	12.46
262.316	12.38
262.53	12.52
262.745	12.53
262.96	12.53
263.174	12.52
263.389	12.55
263.603	12.59
263.818	12.54
264.033	12.53
264.247	12.54
264.462	12.32
264.676	12.7
264.891	12.9
265.105	12.93
265.32	12.76
265.534	12.64
265.749	12.49
265.963	12.51
266.178	12.49
266.392	12.3
266.606	12.28
266.821	12.34
267.035	12.2
267.25	11.93
267.464	11.88
267.678	11.98
267.893	11.94
268.107	11.93
268.321	12.01
268.536	12.03
268.75	12.07
268.964	12.04
269.179	12.02
269.393	12.11
269.607	12.23
269.821	12.22
270.036	11.99
270.25	11.96
270.464	11.91
270.678	11.74
270.892	11.66
271.106	11.69
271.321	11.65
271.535	11.68
271.749	11.47
271.963	11.4
272.177	11.28
272.391	11.31
272.605	11.31
272.819	11.33
273.033	11.34
273.248	11.41
273.462	11.33
273.676	11.37
273.89	11.34
274.104	11.48
274.318	11.46
274.532	11.63
274.746	11.66
274.96	11.71
275.173	11.75
275.387	11.8
275.601	11.82
275.815	11.98
276.029	11.92
276.243	11.91
276.457	11.91
276.671	12.02
276.885	11.9
277.098	11.89
277.312	11.86
277.526	11.75
277.74	11.75
277.954	11.69
278.167	11.58
278.381	11.75
278.595	11.85
278.809	11.78
279.022	11.76
279.236	11.76
279.45	11.77
279.663	11.76
279.877	11.74
280.091	11.72
280.304	11.73
280.518	11.79
280.732	11.56
280.945	11.39
281.159	11.41
281.373	11.32
281.586	11.23
281.8	11.18
282.013	11.19
282.227	11.19
282.44	11.15
282.654	11.12
282.867	11.07
283.081	11.14
283.294	11.14
283.508	11.08
283.721	11.04
283.935	11.1
284.148	11.11
284.362	11.02
284.575	11.04
284.789	10.89
285.002	10.9
285.215	10.86
285.429	10.82
285.642	10.81
285.855	10.79
286.069	10.81
286.282	10.85
286.495	10.86
286.709	10.87
286.922	10.84
287.135	10.89
287.348	10.9
287.562	10.92
287.775	10.93
287.988	10.96
288.201	10.98
288.415	10.97
288.628	10.94
288.841	10.91
289.054	10.98
289.267	10.92
289.48	10.97
289.694	10.91
289.907	10.87
290.12	10.81
290.333	10.79
290.546	10.85
290.759	10.83
290.972	10.82
291.185	10.82
291.398	10.8
291.611	10.87
291.824	10.92
292.037	10.94
292.25	10.97
292.463	11.02
292.676	11.06
292.889	11.01
293.102	11.06
293.315	11.1
293.528	11.07
293.741	11.06
293.954	11.07
294.166	11.02
294.379	11.02
294.592	11.12
294.805	11.14
295.018	11.13
295.231	11.18
295.443	11.16
295.656	11.15
295.869	11.19
296.082	11.16
296.295	11.09
296.507	11.03
296.72	11.03
296.933	10.91
297.145	10.88
297.358	10.86
297.571	10.84
297.783	10.84
297.996	10.81
298.209	10.79
298.421	10.82
298.634	10.85
298.847	10.94
299.059	10.96
299.272	11.03
299.484	11.04
299.697	11.06
299.91	11.04
300.122	11.09
300.335	11.19
300.547	11.18
300.76	11.21
300.972	11.21
301.185	11.14
301.397	11.11
301.609	11.15
301.822	11.18
302.034	11.23
302.247	11.28
302.459	11.28
302.672	11.28
302.884	11.32
303.096	11.36
303.309	11.38
303.521	11.43
303.733	11.45
303.946	11.49
304.158	11.47
304.37	11.48
304.583	11.5
304.795	11.49
305.007	11.45
305.219	11.54
305.432	11.54
305.644	11.63
305.856	11.7
306.068	11.78
306.28	11.8
306.493	11.93
306.705	11.96
306.917	11.99
307.129	12.08
307.341	12.05
307.553	12
307.765	11.97
307.977	11.95
308.189	11.87
308.402	11.81
308.614	11.8
308.826	11.69
309.038	11.71
309.25	11.69
309.462	11.58
309.674	11.64
309.886	11.61
310.098	11.6
310.31	11.57
310.522	11.63
310.733	11.64
310.945	11.6
311.157	11.63
311.369	11.6
311.581	11.65
311.793	11.71
312.005	11.72
312.217	11.76
312.428	11.8
312.64	11.84
312.852	11.9
313.064	11.93
313.276	12.05
313.487	12.08
313.699	12.13
313.911	12.07
314.123	12.1
314.334	12.13
314.546	12.2
314.758	12.28
314.97	12.25
315.181	12.2
315.393	12.19
315.604	12.16
315.816	12.29
316.028	12.38
316.239	12.46
316.451	12.52
316.663	12.54
316.874	12.54
317.086	12.49
317.297	12.58
317.509	12.46
317.72	12.54
317.932	12.59
318.143	12.54
318.355	12.49
318.566	12.49
318.778	12.46
318.989	12.46
319.201	12.42
319.412	12.47
319.624	12.48
319.835	12.62
320.046	12.6
320.258	12.58
320.469	12.64
320.68	12.67
320.892	12.66
321.103	12.73
321.314	12.73
321.526	12.75
321.737	12.75
321.948	12.71
322.16	12.67
322.371	12.66
322.582	12.63
322.793	12.54
323.005	12.51
323.216	12.47
323.427	12.4
323.638	12.37
323.849	12.33
324.06	12.34
324.272	12.33
324.483	12.32
324.694	12.32
324.905	12.31
325.116	12.35
325.327	12.37
325.538	12.37
325.749	12.36
325.96	12.34
326.171	12.42
326.382	12.42
326.593	12.5
326.804	12.52
327.015	12.61
327.226	12.68
327.437	12.64
327.648	12.64
327.859	12.73
328.07	12.88
328.281	12.93
328.492	12.93
328.703	12.95
328.914	12.9
329.125	12.96
329.335	12.92
329.546	12.9
329.757	12.95
329.968	12.9
330.179	12.94
330.39	12.86
330.6	13.01
330.811	12.96
331.022	12.95
331.233	12.99
331.443	13
331.654	13.01
331.865	12.99
332.075	13.06
332.286	13.13
332.497	13.1
332.707	13.1
332.918	12.99
333.129	13.05
333.339	13.02
333.55	13.03
333.761	13.04
333.971	13.09
334.182	13.14
334.392	13.07
334.603	13.06
334.813	12.98
335.024	12.93
335.234	12.91
335.445	12.85
335.655	12.94
335.866	12.86
336.076	12.8
336.287	12.75
336.497	12.69
336.708	12.76
336.918	12.78
337.128	12.88
337.339	12.94
337.549	12.93
337.759	13.02
337.97	12.95
338.18	13.05
338.39	13.09
338.601	13.17
338.811	13.23
339.021	13.21
339.232	13.15
339.442	13.14
339.652	13.2
339.862	13.24
340.073	13.23
340.283	13.29
340.493	13.2
340.703	13.16
340.913	13.08
341.124	13.03
341.334	13.03
341.544	13.11
341.754	13.09
341.964	13.06
342.174	13.05
342.384	13.09
342.594	13.11
342.804	13.21
343.014	13.31
343.224	13.31
343.435	13.4
343.645	13.32
343.855	13.32
344.065	13.31
344.274	13.3
344.484	13.3
344.694	13.24
344.904	13.18
345.114	13.19
345.324	13.09
345.534	13.1
345.744	13.1
345.954	13.14
346.164	13.13
346.374	13.11
346.583	13.06
346.793	13.09
347.003	13.09
347.213	13.09
347.423	13.07
347.632	13.11
347.842	13.12
348.052	13.11
348.262	13.12
348.471	13.07
348.681	13.11
348.891	13.19
349.1	13.18
349.31	13.21
349.52	13.24
349.729	13.3
349.939	13.34
350.149	13.31
350.358	13.33
350.568	13.32
350.778	13.32
350.987	13.3
351.197	13.31
351.406	11.19
351.616	11.15
351.825	11.23
352.035	11.18
352.244	11.17
352.454	11.22
352.663	11.2
352.873	11.3
353.082	11.37
353.292	11.38
353.501	11.4
353.711	13.48
353.92	13.57
354.129	13.51
354.339	13.5
354.548	13.53
354.757	13.56
354.967	13.55
355.176	13.47
355.385	13.42
355.595	13.44
355.804	13.44
356.013	13.45
356.223	13.43
356.432	13.44
356.641	13.41
356.85	13.37
357.059	13.34
357.269	13.32
357.478	13.4
357.687	13.47
357.896	13.49
358.105	13.51
358.314	13.53
358.524	13.5
358.733	13.52
358.942	13.54
359.151	13.53
359.36	13.54
359.569	13.57
359.778	13.55
359.987	13.49
360.196	13.46
360.405	13.44
360.614	13.38
360.823	13.34
361.032	13.27
361.241	13.26
361.45	13.24
361.659	13.25
361.868	13.22
362.077	13.25
362.286	13.32
362.495	13.38
362.704	13.41
362.912	13.44
363.121	13.48
363.33	13.52
363.539	13.56
363.748	13.6
363.957	13.61
364.165	13.68
364.374	13.64
364.583	13.59
364.792	13.56
365	13.58
365.209	13.6
365.418	13.65
365.626	13.66
365.835	13.68
366.044	13.74
366.253	13.75
366.461	13.75
366.67	13.74
366.878	13.78
367.087	13.73
367.296	13.73
367.504	13.74
367.713	13.74
367.921	13.79
368.13	13.79
368.338	13.73
368.547	13.76
368.755	13.79
368.964	13.84
369.172	13.84
369.381	13.92
369.589	13.93
369.798	13.98
370.006	13.98
370.215	13.96
370.423	13.94
370.632	13.98
370.84	13.97
371.048	13.97
371.257	13.98
371.465	13.99
371.673	13.97
371.882	14.03
372.09	14.03
372.298	14.05
372.507	14.09
372.715	14.14
372.923	14.19
373.131	14.23
373.34	14.21
373.548	14.26
373.756	14.28
373.964	14.31
374.172	14.25
374.381	14.27
374.589	14.29
374.797	14.26
375.005	14.25
375.213	14.18
375.421	14.13
375.629	14.13
375.837	14.06
376.045	14.03
376.254	13.98
376.462	13.98
376.67	13.93
376.878	13.92
377.086	13.91
377.294	13.88
377.502	13.91
377.71	13.93
377.918	13.92
378.126	13.92
378.333	13.97
378.541	13.98
378.749	14.01
378.957	14.02
379.165	14.03
379.373	14.06
379.581	14.11
379.789	14.14
379.996	14.18
380.204	14.2
380.412	14.22
380.62	14.24
380.828	14.26
381.035	14.28
381.243	14.34
381.451	14.32
381.659	14.34
381.866	14.34
382.074	14.34
382.282	14.34
382.489	14.38
382.697	14.39
382.905	14.36
383.112	14.41
383.32	14.39
383.528	14.34
383.735	14.35
383.943	14.36
384.15	14.38
384.358	14.35
384.565	14.37
384.773	14.39
384.981	14.4
385.188	14.42
385.396	14.41
385.603	14.4
385.811	14.42
386.018	14.4
386.225	14.39
386.433	14.36
386.64	14.42
386.848	14.42
387.055	14.44
387.263	14.44
387.47	14.4
387.677	14.38
387.885	14.42
388.092	14.45
388.299	14.51
388.507	14.52
388.714	14.54
388.921	14.52
389.128	14.52
389.336	14.48
389.543	14.49
389.75	14.52
389.957	14.52
390.165	14.52
390.372	14.52
390.579	14.47
390.786	14.48
390.993	14.48
391.2	14.48
391.408	14.46
391.615	14.47
391.822	14.47
392.029	14.49
392.236	14.53
392.443	14.52
392.65	14.51
392.857	14.55
393.064	14.56
393.271	14.56
393.478	14.58
393.685	14.61
393.892	14.62
394.099	14.61
394.306	14.6
394.513	14.57
394.72	14.55
394.927	14.55
395.134	14.55
395.341	14.54
395.547	14.55
395.754	14.55
395.961	14.56
396.168	14.58
396.375	14.61
396.582	14.64
396.788	14.67
396.995	14.71
397.202	14.76
397.409	14.79
397.616	14.82
397.822	14.81
398.029	14.81
398.236	14.81
398.442	14.76
398.649	14.78
398.856	14.8
399.062	14.79
399.269	14.78
399.476	14.8
399.682	14.75
399.889	14.75
400.096	14.77
400.302	14.82
400.509	14.83
400.715	14.88
400.922	14.87
401.128	14.86
401.335	14.88
401.541	14.92
401.748	14.9
401.954	14.96
402.161	14.99
402.367	14.98
402.574	14.98
402.78	14.99
402.986	14.97
403.193	14.96
403.399	14.94
403.606	14.97
403.812	14.94
404.018	14.98
404.225	14.98
404.431	14.99
404.637	14.96
404.844	14.95
405.05	14.99
405.256	15.01
405.462	15.03
405.669	15.05
405.875	15.05
406.081	15.09
406.287	15.1
406.494	15.07
406.7	15.05
406.906	15.1
407.112	15.11
407.318	15.11
407.524	15.09
407.73	15.12
407.937	15.15
408.143	15.15
408.349	15.16
408.555	15.14
408.761	15.17
408.967	15.2
409.173	15.2
409.379	15.21
409.585	15.2
409.791	15.2
409.997	15.2
410.203	15.21
410.409	15.18
410.615	15.17
410.821	15.17
411.027	15.21
411.233	15.29
411.438	15.3
411.644	15.32
411.85	15.34
412.056	15.37
412.262	15.4
412.468	15.4
412.673	15.45
412.879	15.47
413.085	15.46
413.291	15.46
413.497	15.45
413.702	15.49
413.908	15.45
414.114	15.48
414.319	15.5
414.525	15.5
414.731	15.52
414.937	15.55
415.142	15.53
415.348	15.52
415.553	15.54
415.759	15.54
415.965	15.49
416.17	15.52
416.376	15.51
416.581	15.52
416.787	15.54
416.992	15.52
417.198	15.5
417.404	15.52
417.609	15.55
417.815	15.53
418.02	15.55
418.225	15.58
418.431	15.59
418.636	15.57
418.842	15.59
419.047	15.57
419.253	15.57
419.458	15.6
419.663	15.59
419.869	15.58
420.074	15.59
420.279	15.58
420.485	15.58
420.69	15.57
420.895	15.57
421.101	15.57
421.306	15.6
421.511	15.59
421.716	15.59
421.922	15.61
422.127	15.63
422.332	15.63
422.537	15.65
422.742	15.66
422.947	15.68
423.153	15.7
423.358	15.71
423.563	15.71
423.768	15.73
423.973	15.72
424.178	15.73
424.383	15.75
424.588	15.77
424.793	15.76
424.998	15.78
425.203	15.79
425.408	15.83
425.613	15.85
425.818	15.86
426.023	15.89
426.228	15.92
426.433	15.94
426.638	15.97
426.843	15.98
427.048	16.01
427.253	16.05
427.458	16.08
427.663	16.08
427.867	16.11
428.072	16.15
428.277	16.15
428.482	16.18
428.687	16.18
428.892	16.18
429.096	16.21
429.301	16.21
429.506	16.21
429.711	16.23
429.915	16.28
430.12	16.28
430.325	16.26
430.529	16.29
430.734	16.33
430.939	16.35
431.143	16.39
431.348	16.39
431.553	16.41
431.757	16.41
431.962	16.41
432.166	16.4
432.371	16.38
432.575	16.39
432.78	16.38
432.984	16.37
433.189	16.38
433.394	16.37
433.598	16.36
433.802	16.37
434.007	16.39
434.211	16.39
434.416	16.39
434.62	16.43
434.825	16.47
435.029	16.5
435.233	16.54
435.438	16.56
435.642	16.59
435.846	16.64
436.051	16.66
436.255	16.69
436.459	16.7
436.664	16.72
436.868	16.73
437.072	16.72
437.276	16.72
437.481	16.73
437.685	16.75
437.889	16.74
438.093	16.73
438.298	16.76
438.502	16.74
438.706	16.75
438.91	16.78
439.114	16.8
439.318	16.79
439.522	16.8
439.726	16.79
439.931	16.79
440.135	16.82
440.339	16.83
440.543	16.83
440.747	16.86
440.951	16.88
441.155	16.88
441.359	16.89
441.563	16.91
441.767	16.93
441.971	16.95
442.175	16.97
442.378	16.99
442.582	17.01
442.786	17.03
442.99	17.04
443.194	17.06
443.398	17.09
443.602	17.1
443.806	17.13
444.009	17.14
444.213	17.16
444.417	17.16
444.621	17.19
444.825	17.21
445.028	17.22
445.232	17.22
445.436	17.24
445.639	17.25
445.843	17.24
446.047	17.24
446.251	17.25
446.454	17.26
446.658	17.26
446.861	17.26
447.065	17.26
447.269	17.29
447.472	17.33
447.676	17.35
447.879	17.39
448.083	17.42
448.287	17.44
448.49	17.47
448.694	17.49
448.897	17.52
449.101	17.55
449.304	17.59
449.507	17.6
449.711	17.61
449.914	17.62
450.118	17.62
450.321	17.65
450.525	17.68
450.728	17.68
450.931	17.74
451.135	17.76
451.338	17.8
451.541	17.79
451.745	17.82
451.948	17.83
452.151	17.84
452.355	17.87
452.558	17.87
452.761	17.89
452.964	17.93
453.168	17.92
453.371	17.94
453.574	17.93
453.777	17.98
453.98	17.97
454.183	17.99
454.387	18.03
454.59	18.04
454.793	18.05
454.996	18.07
455.199	18.1
455.402	18.12
455.605	18.14
455.808	18.15
456.011	18.15
456.214	18.18
456.417	18.19
456.62	18.18
456.823	18.2
457.026	18.21
457.229	18.25
457.432	18.26
457.635	18.28
457.838	18.28
458.041	18.28
458.244	18.29
458.447	18.3
458.65	18.3
458.852	18.33
459.055	18.31
459.258	18.33
459.461	18.34
459.664	18.34
459.867	18.34
460.069	18.35
460.272	18.38
460.475	18.41
460.678	18.43
460.88	18.47
461.083	18.49
461.286	18.56
461.488	18.57
461.691	18.59
461.894	18.64
462.096	18.7
462.299	18.72
462.502	18.75
462.704	18.75
462.907	18.78
463.109	18.8
463.312	18.81
463.514	18.83
463.717	18.86
463.92	18.88
464.122	18.86
464.325	18.87
464.527	18.9
464.729	18.95
464.932	18.97
465.134	18.98
465.337	18.97
465.539	19.01
465.742	19.03
465.944	19.04
466.146	19.06
466.349	19.11
466.551	19.12
466.753	19.14
466.956	19.13
467.158	19.14
467.36	19.17
467.563	19.21
467.765	19.21
467.967	19.22
468.169	19.24
468.372	19.24
468.574	19.24
468.776	19.26
468.978	19.32
469.18	19.36
469.383	19.37
469.585	19.42
469.787	19.45
469.989	19.48
470.191	19.49
470.393	19.54
470.595	19.59
470.797	19.63
470.999	19.64
471.201	19.64
471.403	19.65
471.606	19.68
471.808	19.72
472.009	19.74
472.211	19.74
472.413	19.76
472.615	19.76
472.817	19.77
473.019	19.77
473.221	19.81
473.423	19.82
473.625	19.84
473.827	19.88
474.029	19.87
474.231	19.89
474.432	19.92
474.634	19.93
474.836	19.96
475.038	19.97
475.24	19.99
475.441	19.98
475.643	20.01
475.845	20.01
476.046	20.01
476.248	20.02
476.45	20.05
476.652	20.09
476.853	20.11
477.055	20.12
477.257	20.15
477.458	20.18
477.66	20.2
477.861	20.21
478.063	20.24
478.265	20.26
478.466	20.28
478.668	20.28
478.869	20.27
479.071	20.29
479.272	20.3
479.474	20.29
479.675	20.3
479.877	20.32
480.078	20.36
480.28	20.36
480.481	20.37
480.682	20.37
480.884	20.41
481.085	20.44
481.287	20.45
481.488	20.45
481.689	20.46
481.891	20.48
482.092	20.45
482.293	20.43
482.495	20.39
482.696	20.4
482.897	20.42
483.098	20.45
483.3	20.48
483.501	20.52
483.702	20.58
483.903	20.62
484.104	20.64
484.306	20.68
484.507	20.71
484.708	20.75
484.909	20.77
485.11	20.81
485.311	20.82
485.512	20.83
485.713	20.84
485.914	20.83
486.116	20.83
486.317	20.83
486.518	20.85
486.719	20.86
486.92	20.88
487.121	20.9
487.322	20.91
487.523	20.93
487.723	20.95
487.924	20.97
488.125	21
488.326	21.02
488.527	21.03
488.728	21.06
488.929	21.07
489.13	21.11
489.331	21.14
489.531	21.16
489.732	21.18
489.933	21.22
490.134	21.23
490.335	21.25
490.535	21.27
490.736	21.29
490.937	21.3
491.137	21.35
491.338	21.37
491.539	21.38
491.74	21.41
491.94	21.42
492.141	21.43
492.341	21.45
492.542	21.49
492.743	21.51
492.943	21.54
493.144	21.58
493.344	21.59
493.545	21.63
493.746	21.65
493.946	21.68
494.147	21.72
494.347	21.77
494.548	21.83
494.748	21.85
494.949	21.87
495.149	21.89
495.349	21.92
495.55	21.95
495.75	21.97
495.951	22
496.151	22.03
496.351	22.08
496.552	22.06
496.752	22.07
496.952	22.08
497.153	22.1
497.353	22.14
497.553	22.17
497.754	22.2
497.954	22.21
498.154	22.24
498.354	22.25
498.554	22.27
498.755	22.33
498.955	22.36
499.155	22.41
499.355	22.45
499.555	22.48
499.755	22.49
499.956	22.54
500.156	22.58
500.356	22.6
500.556	22.62
500.756	22.67
500.956	22.67
501.156	22.71
501.356	22.7
501.556	22.74
501.756	22.77
501.956	22.81
502.156	22.82
502.356	22.85
502.556	22.89
502.756	22.93
502.956	22.95
503.156	22.99
503.356	23.01
503.555	23.06
503.755	23.08
503.955	23.09
504.155	23.12
504.355	23.16
504.555	23.16
504.754	23.16
504.954	23.16
505.154	23.19
505.354	23.2
505.553	23.23
505.753	23.26
505.953	23.28
506.153	23.31
506.352	23.31
506.552	23.33
506.752	23.38
506.951	23.42
507.151	23.44
507.351	23.45
507.55	23.5
507.75	23.51
507.949	23.52
508.149	23.56
508.348	23.57
508.548	23.57
508.747	23.59
508.947	23.61
509.146	23.63
509.346	23.64
509.545	23.67
509.745	23.68
509.944	23.73
510.144	23.76
510.343	23.77
510.543	23.81
510.742	23.85
510.941	23.85
511.141	23.88
511.34	23.91
511.539	23.94
511.739	23.95
511.938	23.97
512.137	23.98
512.337	23.99
512.536	24.03
512.735	24.05
512.934	24.09
513.134	24.13
513.333	24.15
513.532	24.15
513.731	24.21
513.93	24.24
514.129	24.26
514.329	24.28
514.528	24.3
514.727	24.32
514.926	24.34
515.125	24.38
515.324	24.42
515.523	24.45
515.722	24.49
515.921	24.52
516.12	24.55
516.319	24.57
516.518	24.6
516.717	24.63
516.916	24.66
517.115	24.67
517.314	24.68
517.513	24.67
517.712	24.67
517.911	24.69
518.11	24.7
518.309	24.71
518.507	24.72
518.706	24.75
518.905	24.79
519.104	24.82
519.303	24.85
519.501	24.88
519.7	24.94
519.899	24.99
520.098	25.02
520.296	25.08
520.495	25.12
520.694	25.18
520.893	25.19
521.091	25.21
521.29	25.24
521.489	25.3
521.687	25.32
521.886	25.34
522.084	25.38
522.283	25.43
522.482	25.45
522.68	25.49
522.879	25.52
523.077	25.57
523.276	25.61
523.474	25.62
523.673	25.64
523.871	25.66
524.07	25.67
524.268	25.69
524.467	25.68
524.665	25.68
524.863	25.68
525.062	25.7
525.26	25.72
525.459	25.72
525.657	25.76
525.855	25.76
526.054	25.78
526.252	25.81
526.45	25.83
526.649	25.86
526.847	25.9
527.045	25.92
527.243	25.93
527.442	25.95
527.64	25.99
527.838	26.02
528.036	26.08
528.234	26.13
528.433	26.16
528.631	26.21
528.829	26.23
529.027	26.25
529.225	26.28
529.423	26.31
529.621	26.36
529.819	26.39
530.017	26.42
530.215	26.44
530.414	26.46
530.612	26.49
530.81	26.5
531.008	26.55
531.206	26.58
531.403	26.62
531.601	26.65
531.799	26.66
531.997	26.68
532.195	26.7
532.393	26.72
532.591	26.75
532.789	26.78
532.987	26.81
533.184	26.83
533.382	26.86
533.58	26.89
533.778	26.92
533.976	26.96
534.173	27.02
534.371	27.05
534.569	27.1
534.767	27.13
534.964	27.17
535.162	27.21
535.36	27.24
535.557	27.26
535.755	27.29
535.953	27.31
536.15	27.33
536.348	27.36
536.546	27.4
536.743	27.42
536.941	27.46
537.138	27.47
537.336	27.48
537.533	27.51
537.731	27.54
537.928	27.59
538.126	27.61
538.323	27.66
538.521	27.69
538.718	27.73
538.916	27.78
539.113	27.81
539.311	27.84
539.508	27.88
539.705	27.89
539.903	27.91
540.1	27.94
540.297	27.95
540.495	27.96
540.692	27.99
540.889	28
541.087	28.04
541.284	28.07
541.481	28.09
541.678	28.11
541.876	28.15
542.073	28.18
542.27	28.22
542.467	28.27
542.664	28.3
542.862	28.33
543.059	28.37
543.256	28.39
543.453	28.41
543.65	28.46
543.847	28.5
544.044	28.54
544.241	28.58
544.438	28.6
544.635	28.62
544.832	28.66
545.029	28.71
545.226	28.72
545.423	28.76
545.62	28.81
545.817	28.85
546.014	28.87
546.211	28.92
546.408	28.96
546.605	28.99
546.802	29.06
546.999	29.1
547.196	29.15
547.392	29.22
547.589	29.25
547.786	29.27
547.983	29.32
548.18	29.39
548.376	29.42
548.573	29.48
548.77	29.52
548.967	29.54
549.163	29.6
549.36	29.62
549.557	29.66
549.753	29.7
549.95	29.74
550.147	29.79
550.343	29.81
550.54	29.87
550.737	29.87
550.933	29.92
551.13	29.94
551.326	29.98
551.523	29.98
551.719	30.01
551.916	30.03
552.112	30.05
552.309	30.06
552.505	30.09
552.702	30.11
552.898	30.16
553.095	30.21
553.291	30.25
553.487	30.27
553.684	30.32
553.88	30.34
554.077	30.39
554.273	30.46
554.469	30.51
554.666	30.57
554.862	30.62
555.058	30.67
555.255	30.66
555.451	30.7
555.647	30.71
555.843	30.77
556.039	30.83
556.236	30.84
556.432	30.85
556.628	30.88
556.824	30.9
557.02	30.92
557.217	30.94
557.413	31.01
557.609	31.05
557.805	31.1
558.001	31.14
558.197	31.17
558.393	31.24
558.589	31.28
558.785	31.3
558.981	31.35
559.177	31.37
559.373	31.41
559.569	31.42
559.765	31.45
559.961	31.48
560.157	31.51
560.353	31.52
560.549	31.54
560.745	31.56
560.941	31.63
561.136	31.64
561.332	31.7
561.528	31.75
561.724	31.78
561.92	31.83
562.116	31.83
562.311	31.87
562.507	31.92
562.703	31.97
562.899	32.04
563.094	32.04
563.29	32.08
563.486	32.08
563.681	32.08
563.877	32.11
564.073	32.12
564.268	32.17
564.464	32.18
564.66	32.19
564.855	32.19
565.051	32.18
565.246	32.23
565.442	32.24
565.637	32.25
565.833	32.29
566.028	32.3
566.224	32.33
566.419	32.37
566.615	32.42
566.81	32.45
567.006	32.48
567.201	32.52
567.397	32.53
567.592	32.58
567.787	32.63
567.983	32.63
568.178	32.66
568.373	32.69
568.569	32.72
568.764	32.71
568.959	32.74
569.155	32.79
569.35	32.81
569.545	32.86
569.74	32.88
569.936	32.93
570.131	33.01
570.326	33.08
570.521	33.13
570.716	33.17
570.912	33.23
571.107	33.28
571.302	33.3
571.497	33.36
571.692	33.41
571.887	33.43
572.082	33.48
572.277	33.51
572.472	33.54
572.667	33.55
572.862	33.57
573.057	33.58
573.252	33.61
573.447	33.66
573.642	33.66
573.837	33.67
574.032	33.69
574.227	33.69
574.422	33.71
574.617	33.73
574.812	33.76
575.007	33.8
575.202	33.84
575.396	33.89
575.591	33.91
575.786	33.97
575.981	34
576.176	34.05
576.37	34.1
576.565	34.14
576.76	34.18
576.955	34.22
577.149	34.27
577.344	34.32
577.539	34.39
577.733	34.44
577.928	34.47
578.123	34.55
578.317	34.58
578.512	34.63
578.706	34.68
578.901	34.72
579.096	34.79
579.29	34.82
579.485	34.83
579.679	34.83
579.874	34.85
580.068	34.9
580.263	34.91
580.457	34.96
580.652	35.01
580.846	35.03
581.04	35.07
581.235	35.06
581.429	35.1
581.624	35.2
581.818	35.22
582.012	35.28
582.207	35.3
582.401	35.34
582.595	35.39
582.79	35.4
582.984	35.48
583.178	35.5
583.372	35.57
583.567	35.61
583.761	35.62
583.955	35.69
584.149	35.69
584.344	35.68
584.538	35.72
584.732	35.75
584.926	35.78
585.12	35.79
585.314	35.85
585.508	35.89
585.702	35.89
585.896	35.98
586.091	36.02
586.285	36.08
586.479	36.09
586.673	36.17
586.867	36.19
587.061	36.26
587.255	36.3
587.449	36.32
587.642	36.38
587.836	36.43
588.03	36.39
588.224	36.42
588.418	36.43
588.612	36.49
588.806	36.5
589	36.55
589.193	36.56
589.387	36.58
589.581	36.63
589.775	36.65
589.969	36.7
590.162	36.72
590.356	36.71
590.55	36.76
590.744	36.8
590.937	36.84
591.131	36.88
591.325	36.93
591.518	36.98
591.712	37.03
591.906	37.07
592.099	37.08
592.293	37.17
592.486	37.27
592.68	37.31
592.874	37.36
593.067	37.36
593.261	37.36
593.454	37.37
593.648	37.41
593.841	37.39
594.035	37.38
594.228	37.42
594.421	37.44
594.615	37.47
594.808	37.47
595.002	37.52
595.195	37.56
595.388	37.58
595.582	37.62
595.775	37.61
595.968	37.65
596.162	37.67
596.355	37.69
596.548	37.69
596.742	37.69
596.935	37.75
597.128	37.72
597.321	37.76
597.515	37.82
597.708	37.83
597.901	37.89
598.094	37.93
598.287	38.01
598.48	38.08
598.674	38.18
598.867	38.24
599.06	38.28
599.253	38.39
599.446	38.42
599.639	38.45
599.832	38.52
600.025	38.56
600.218	38.64
600.411	38.68
600.604	38.69
600.797	38.66
600.99	38.67
601.183	38.73
601.376	38.72
601.569	38.71
601.762	38.77
601.955	38.81
602.147	38.85
602.34	38.82
602.533	38.8
602.726	38.8
602.919	38.86
603.112	38.88
603.304	38.88
603.497	38.93
603.69	38.96
603.883	38.96
604.075	38.95
604.268	38.97
604.461	39.04
604.654	39.1
604.846	39.15
605.039	39.17
605.231	39.21
605.424	39.24
605.617	39.26
605.809	39.33
606.002	39.38
606.194	39.44
606.387	39.49
606.58	39.51
606.772	39.53
606.965	39.56
607.157	39.6
607.35	39.64
607.542	39.7
607.735	39.73
607.927	39.73
608.119	39.71
608.312	39.72
608.504	39.77
608.697	39.81
608.889	39.81
609.081	39.85
609.274	39.91
609.466	39.9
609.658	39.93
609.851	39.97
610.043	39.99
610.235	40.07
610.427	40.11
610.62	40.11
610.812	40.15
611.004	40.24
611.196	40.31
611.388	40.32
611.581	40.39
611.773	40.44
611.965	40.49
612.157	40.55
612.349	40.62
612.541	40.66
612.733	40.72
612.925	40.76
613.117	40.79
613.309	40.83
613.501	40.88
613.693	40.9
613.885	40.91
614.077	40.97
614.269	40.99
614.461	41.01
614.653	41.04
614.845	41.07
615.037	41.11
615.229	41.14
615.421	41.16
615.613	41.17
615.805	41.23
615.996	41.3
616.188	41.32
616.38	41.38
616.572	41.41
616.764	41.44
616.955	41.49
617.147	41.53
617.339	41.57
617.531	41.59
617.722	41.68
617.914	41.72
618.106	41.77
618.297	41.78
618.489	41.77
618.681	41.81
618.872	41.88
619.064	41.91
619.255	41.92
619.447	41.94
619.639	41.98
619.83	41.99
620.022	42
620.213	42
620.405	42.07
620.596	42.16
620.788	42.19
620.979	42.23
621.171	42.22
621.362	42.28
621.553	42.3
621.745	42.33
621.936	42.35
622.128	42.4
622.319	42.45
622.51	42.45
622.702	42.45
622.893	42.53
623.084	42.52
623.276	42.61
623.467	42.67
623.658	42.73
623.849	42.8
624.041	42.84
624.232	42.83
624.423	42.89
624.614	42.9
624.805	42.97
624.996	42.94
625.188	43
625.379	43.02
625.57	43.04
625.761	43.04
625.952	43.02
626.143	43.07
626.334	43.09
626.525	43.09
626.716	43.13
626.907	43.15
627.098	43.19
627.289	43.22
627.48	43.27
627.671	43.26
627.862	43.33
628.053	43.38
628.244	43.41
628.435	43.51
628.626	43.52
628.816	43.54
629.007	43.56
629.198	43.62
629.389	43.64
629.58	43.62
629.771	43.64
629.961	43.67
630.152	43.73
630.343	43.76
630.534	43.74
630.724	43.82
630.915	43.92
631.106	43.98
631.296	44
631.487	44.05
631.678	44.13
631.868	44.21
632.059	44.24
632.25	44.23
632.44	44.25
632.631	44.3
632.821	44.3
633.012	44.32
633.202	44.35
633.393	44.38
633.583	44.4
633.774	44.4
633.964	44.4
634.155	44.41
634.345	44.49
634.536	44.53
634.726	44.56
634.916	44.64
635.107	44.66
635.297	44.69
635.488	44.75
635.678	44.81
635.868	44.86
636.059	44.93
636.249	45
636.439	45.03
636.629	45.1
636.82	45.18
637.01	45.18
637.2	45.27
637.39	45.29
637.581	45.32
637.771	45.35
637.961	45.4
638.151	45.4
638.341	45.45
638.531	45.47
638.721	45.5
638.911	45.51
639.102	45.56
639.292	45.53
639.482	45.57
639.672	45.61
639.862	45.62
640.052	45.64
640.242	45.72
640.432	45.76
640.622	45.79
640.812	45.78
641.002	45.77
641.191	45.82
641.381	45.88
641.571	45.91
641.761	45.92
641.951	45.97
642.141	46
642.331	46.01
642.52	46
642.71	45.99
642.9	46.07
643.09	46.16
643.28	46.16
643.469	46.16
643.659	46.2
643.849	46.25
644.038	46.27
644.228	46.34
644.418	46.37
644.607	46.41
644.797	46.5
644.987	46.57
645.176	46.6
645.366	46.64
645.556	46.75
645.745	46.76
645.935	46.8
646.124	46.86
646.314	46.88
646.503	46.91
646.693	46.93
646.882	46.92
647.072	46.91
647.261	46.95
647.45	47
647.64	46.95
647.829	46.99
648.019	47.02
648.208	47.03
648.397	47.06
648.587	47.12
648.776	47.17
648.965	47.19
649.155	47.24
649.344	47.25
649.533	47.29
649.723	47.34
649.912	47.37
650.101	47.39
650.29	47.41
650.479	47.48
650.669	47.47
650.858	47.49
651.047	47.57
651.236	47.59
651.425	47.59
651.614	47.58
651.803	47.61
651.992	47.66
652.182	47.71
652.371	47.79
652.56	47.78
652.749	47.85
652.938	47.83
653.127	47.82
653.316	47.88
653.505	47.91
653.694	47.94
653.882	47.94
654.071	47.96
654.26	47.95
654.449	47.95
654.638	47.98
654.827	47.97
655.016	48.08
655.205	48.17
655.393	48.17
655.582	48.2
655.771	48.23
655.96	48.36
656.149	48.41
656.337	48.49
656.526	48.49
656.715	48.56
656.903	48.67
657.092	48.69
657.281	48.59
657.469	48.61
657.658	48.63
657.847	48.67
658.035	48.64
658.224	48.6
658.412	48.58
658.601	48.59
658.79	48.55
658.978	48.49
659.167	48.52
659.355	48.56
659.544	48.58
659.732	48.63
659.921	48.65
660.109	48.64
660.297	48.7
660.486	48.78
660.674	48.82
660.863	48.91
661.051	48.94
661.239	49
661.428	49.09
661.616	49.16
661.804	49.14
661.993	49.2
662.181	49.26
662.369	49.33
662.557	49.36
662.746	49.41
662.934	49.41
663.122	49.51
663.31	49.52
663.498	49.53
663.687	49.55
663.875	49.65
664.063	49.72
664.251	49.83
664.439	49.88
664.627	49.87
664.815	49.91
665.003	49.98
665.191	49.99
665.379	50.05
665.567	50.09
665.755	50.15
665.943	50.18
666.131	50.18
666.319	50.19
666.507	50.22
666.695	50.25
666.883	50.29
667.071	50.29
667.259	50.33
667.447	50.34
667.635	50.41
667.823	50.43
668.01	50.43
668.198	50.43
668.386	50.42
668.574	50.44
668.761	50.52
668.949	50.51
669.137	50.54
669.325	50.59
669.512	50.59
669.7	50.62
669.888	50.66
670.075	50.69
670.263	50.72
670.451	50.73
670.638	50.74
670.826	50.74
671.013	50.75
671.201	50.82
671.389	50.79
671.576	50.82
671.764	50.81
671.951	50.8
672.139	50.87
672.326	50.9
672.514	50.93
672.701	50.9
672.889	50.94
673.076	51.03
673.263	50.97
673.451	51.04
673.638	51.07
673.825	51.13
674.013	51.18
674.2	51.19
674.387	51.23
674.575	51.28
674.762	51.36
674.949	51.44
675.137	51.4
675.324	51.49
675.511	51.52
675.698	51.57
675.885	51.57
676.073	51.55
676.26	51.58
676.447	51.6
676.634	51.64
676.821	51.66
677.008	51.63
677.195	51.68
677.383	51.71
677.57	51.71
677.757	51.69
677.944	51.72
678.131	51.72
678.318	51.72
678.505	51.75
678.692	51.72
678.879	51.74
679.066	51.74
679.253	51.78
679.439	51.77
679.626	51.81
679.813	51.85
680	51.87
680.187	51.95
680.374	51.95
680.561	51.97
680.747	52.03
680.934	52.05
681.121	52.09
681.308	52.11
681.494	52.13
681.681	52.19
681.868	52.22
682.055	52.27
682.241	52.33
682.428	52.41
682.615	52.46
682.801	52.53
682.988	52.59
683.175	52.69
683.361	52.74
683.548	52.82
683.734	52.8
683.921	52.87
684.107	52.88
684.294	52.87
684.48	52.94
684.667	52.98
684.853	53.01
685.04	53.07
685.226	53.03
685.413	53
685.599	53.03
685.786	53.08
685.972	53.07
686.158	53.09
686.345	53.14
686.531	53.15
686.717	53.11
686.904	53.08
687.09	53.13
687.276	53.21
687.463	53.31
687.649	53.33
687.835	53.32
688.021	53.37
688.208	53.46
688.394	53.46
688.58	53.49
688.766	53.59
688.952	53.67
689.138	53.65
689.324	53.62
689.511	53.64
689.697	53.66
689.883	53.72
690.069	53.77
690.255	53.76
690.441	53.87
690.627	53.84
690.813	53.83
690.999	53.86
691.185	53.89
691.371	53.91
691.557	53.97
691.743	53.97
691.929	53.94
692.115	53.96
692.3	53.93
692.486	53.91
692.672	53.92
692.858	54.05
693.044	53.99
693.23	54.07
693.415	54.1
693.601	54.09
693.787	54.11
693.973	54.18
694.158	54.22
694.344	54.3
694.53	54.3
694.715	54.3
694.901	54.24
695.087	54.36
695.272	54.32
695.458	54.36
695.644	54.4
695.829	54.43
696.015	54.44
696.2	54.42
696.386	54.49
696.571	54.48
696.757	54.52
696.943	54.55
697.128	54.51
697.313	54.5
697.499	54.53
697.684	54.53
697.87	54.52
698.055	54.49
698.241	54.49
698.426	54.44
698.611	54.45
698.797	54.49
698.982	54.47
699.167	54.49
699.353	54.55
699.538	54.53
699.723	54.6
699.909	54.62
700.094	54.7
700.279	54.76
700.464	54.84
700.649	54.93
700.835	54.97
701.02	55.07
701.205	55.13
701.39	55.2
701.575	55.29
701.76	55.26
701.945	55.32
702.13	55.33
702.316	55.38
702.501	55.34
702.686	55.35
702.871	55.39
703.056	55.36
703.241	55.36
703.426	55.35
703.611	55.43
703.796	55.61
703.98	55.63
704.165	55.67
704.35	55.71
704.535	55.76
704.72	55.78
704.905	55.74
705.09	55.87
705.275	55.96
705.459	56.02
705.644	56.03
705.829	55.87
706.014	56.05
706.198	56.1
706.383	56.13
706.568	56.23
706.753	56.28
706.937	56.31
707.122	56.3
707.307	56.27
707.491	56.27
707.676	56.22
707.86	56.38
708.045	56.3
708.23	56.33
708.414	56.33
708.599	56.32
708.783	56.36
708.968	56.39
709.152	56.41
709.337	56.49
709.521	56.56
709.706	56.64
709.89	56.59
710.075	56.56
710.259	56.59
710.443	56.61
710.628	56.63
710.812	56.63
710.997	56.64
711.181	56.67
711.365	56.59
711.55	56.54
711.734	56.54
711.918	56.6
712.102	56.62
712.287	56.62
712.471	56.64
712.655	56.61
712.839	56.61
713.023	56.64
713.208	56.66
713.392	56.72
713.576	56.77
713.76	56.81
713.944	56.8
714.128	56.89
714.312	56.91
714.496	56.93
714.68	56.85
714.864	56.95
715.048	57.06
715.232	57.1
715.416	57.08
715.6	57.07
715.784	57.05
715.968	57.05
716.152	57.05
716.336	57.09
716.52	57.15
716.704	57.29
716.888	57.28
717.072	57.24
717.256	57.24
717.439	57.31
717.623	57.33
717.807	57.37
717.991	57.43
718.174	57.45
718.358	57.42
718.542	57.49
718.726	57.52
718.909	57.46
719.093	57.52
719.277	57.54
719.46	57.64
719.644	57.72
719.828	57.71
720.011	57.76
720.195	57.83
720.378	57.86
720.562	57.85
720.746	57.93
720.929	58.06
721.113	58.07
721.296	58.08
721.48	58.11
721.663	58.12
721.846	58.16
722.03	58.24
722.213	58.21
722.397	58.29
722.58	58.36
722.764	58.36
722.947	58.34
723.13	58.35
723.314	58.45
723.497	58.49
723.68	58.44
723.863	58.47
724.047	58.46
724.23	58.53
724.413	58.52
724.596	58.42
724.78	58.4
724.963	58.39
725.146	58.33
725.329	58.24
725.512	58.14
725.695	58.17
725.879	58.29
726.062	58.22
726.245	58.14
726.428	58.08
726.611	58.13
726.794	58.17
726.977	58.22
727.16	58.31
727.343	58.39
727.526	58.59
727.709	58.63
727.892	58.59
728.075	58.68
728.258	58.77
728.441	58.97
728.624	58.98
728.806	58.91
728.989	58.93
729.172	58.95
729.355	58.95
729.538	58.88
729.721	58.88
729.903	58.91
730.086	58.91
730.269	58.94
730.452	58.91
730.634	58.92
730.817	59.06
731	59.08
731.182	59.07
731.365	59.13
731.548	59.16
731.73	59.17
731.913	59.19
732.095	59.15
732.278	59.21
732.461	59.28
732.643	59.3
732.826	59.28
733.008	59.33
733.191	59.36
733.373	59.38
733.556	59.4
733.738	59.48
733.921	59.44
734.103	59.44
734.285	59.43
734.468	59.4
734.65	59.37
734.833	59.44
735.015	59.37
735.197	59.43
735.38	59.55
735.562	59.53
735.744	59.51
735.926	59.64
736.109	59.75
736.291	59.76
736.473	59.78
736.655	59.83
736.838	59.92
737.02	60
737.202	60.05
737.384	60.01
737.566	60.07
737.748	60.1
737.93	60.09
738.113	60.07
738.295	60.1
738.477	60.06
738.659	60.13
738.841	60.03
739.023	60.01
739.205	59.96
739.387	59.86
739.569	59.79
739.751	59.86
739.933	59.82
740.114	59.87
740.296	59.95
740.478	60
740.66	60.12
740.842	60.1
741.024	60.23
741.206	60.3
741.387	60.42
741.569	60.6
741.751	60.59
741.933	60.63
742.115	60.72
742.296	60.68
742.478	60.76
742.66	60.71
742.841	60.82
743.023	60.73
743.205	60.7
743.386	60.69
743.568	60.66
743.75	60.65
743.931	60.68
744.113	60.56
744.294	60.68
744.476	60.58
744.657	60.51
744.839	60.6
745.02	60.67
745.202	60.64
745.383	60.74
745.565	60.78
745.746	60.78
745.928	60.84
746.109	61.03
746.291	61.1
746.472	61.24
746.653	61.28
746.835	61.37
747.016	61.54
747.197	61.62
747.379	61.64
747.56	61.62
747.741	61.72
747.922	61.74
748.104	61.78
748.285	61.6
748.466	61.56
748.647	61.56
748.828	61.43
749.01	61.41
749.191	61.41
749.372	61.38
749.553	61.44
749.734	61.46
749.915	61.48
750.096	61.43
750.277	61.44
750.458	61.54
750.639	61.67
750.82	61.72
751.001	61.65
751.182	61.78
751.363	61.83
751.544	61.87
751.725	61.87
751.906	61.79
752.087	61.86
752.268	61.95
752.449	61.95
752.63	61.89
752.81	61.91
752.991	61.94
753.172	61.94
753.353	61.83
753.534	61.79
753.714	61.99
753.895	61.96
754.076	61.88
754.256	61.91
754.437	61.99
754.618	62.1
754.798	62.07
754.979	62.15
755.16	62.05
755.34	62.25
755.521	62.3
755.702	62.11
755.882	62.33
756.063	62.33
756.243	62.34
756.424	62.29
756.604	62.2
756.785	62.18
756.965	62.27
757.146	62.32
757.326	62.24
757.507	62.27
757.687	62.33
757.867	62.26
758.048	62.36
758.228	62.35
758.408	62.39
758.589	62.44
758.769	62.44
758.949	62.31
759.13	62.54
759.31	62.62
759.49	62.52
759.671	62.57
759.851	62.58
760.031	62.51
760.211	62.56
760.391	62.54
760.572	62.57
760.752	62.6
760.932	62.7
761.112	62.51
761.292	62.53
761.472	62.74
761.652	62.74
761.832	62.82
762.012	62.92
762.192	62.81
762.372	62.75
762.552	62.61
762.732	62.66
762.912	62.62
763.092	62.6
763.272	62.47
763.452	62.35
763.632	62.35
763.812	62.3
763.992	62.33
764.172	62.47
764.351	62.58
764.531	62.74
764.711	62.72
764.891	62.73
765.071	62.78
765.25	62.94
765.43	62.99
765.61	63
765.79	63.03
765.969	63.02
766.149	62.98
766.329	62.97
766.508	62.91
766.688	63.09
766.867	63.19
767.047	63.24
767.227	63.21
767.406	63.25
767.586	63.29
767.765	63.34
767.945	63.46
768.124	63.53
768.304	63.46
768.483	63.44
768.663	63.29
768.842	63.2
769.022	63.15
769.201	63.09
769.38	63.09
769.56	63.12
769.739	63.09
769.919	62.96
770.098	62.96
770.277	63.02
770.457	63.16
770.636	63.31
770.815	63.3
770.994	63.46
771.174	63.29
771.353	63.37
771.532	63.45
771.711	63.54
771.89	63.52
772.07	63.62
772.249	63.63
772.428	63.66
772.607	63.67
772.786	63.75
772.965	63.69
773.144	63.96
773.323	63.89
773.502	63.87
773.681	63.86
773.86	64.02
774.039	63.99
774.218	64.09
774.397	63.94
774.576	63.93
774.755	64.02
774.934	64.12
775.113	64.24
775.292	64.37
775.471	64.33
775.65	64.49
775.828	64.43
776.007	64.44
776.186	64.39
776.365	64.5
776.544	64.35
776.722	64.31
776.901	64.17
777.08	64.08
777.258	64.09
777.437	64.13
777.616	63.99
777.795	64.12
777.973	64.11
778.152	64.11
778.33	64.08
778.509	64.13
778.688	64.09
778.866	64.22
779.045	64.17
779.223	64.06
779.402	64.21
779.58	64.25
779.759	64.13
779.937	64.08
780.116	64.12
780.294	64.14
780.473	64.19
780.651	64.37
780.829	64.26
781.008	64.19
781.186	64.35
781.364	64.41
781.543	64.62
781.721	64.83
781.899	64.78
782.078	64.75
782.256	64.89
782.434	64.87
782.612	64.84
782.791	65.04
782.969	65.17
783.147	65.16
783.325	65.01
783.503	64.95
783.681	64.82
783.86	65
784.038	65.14
784.216	65.05
784.394	65.09
784.572	65.05
784.75	64.96
784.928	64.99
785.106	64.94
785.284	64.94
785.462	64.78
785.64	64.76
785.818	64.84
785.996	64.81
786.174	64.92
786.352	64.94
786.53	64.8
786.707	64.8
786.885	64.78
787.063	64.89
787.241	65.04
787.419	64.99
787.597	65.14
787.774	65.03
787.952	65.14
788.13	65.17
788.308	65.05
788.485	65.12
788.663	65.13
788.841	65.35
789.018	65.29
789.196	65.31
789.374	65.43
789.551	65.37
789.729	65.4
789.906	65.23
790.084	65.3
790.262	65.36
790.439	65.42
790.617	65.57
790.794	65.4
790.972	65.41
791.149	65.38
791.327	65.25
791.504	65.33
791.681	65.39
791.859	65.55
792.036	65.34
792.214	65.43
792.391	65.4
792.568	65.2
792.746	65.33
792.923	65.37
793.1	65.34
793.278	65.49
793.455	65.5
793.632	65.51
793.809	65.52
793.987	65.55
794.164	65.69
794.341	65.78
794.518	66.06
794.695	65.98
794.872	66.03
795.05	66.05
795.227	66.19
795.404	66.08
795.581	66.02
795.758	66.03
795.935	66.17
796.112	66.03
796.289	66.01
796.466	65.9
796.643	65.84
796.82	65.82
796.997	65.87
797.174	65.87
797.351	65.91
797.528	66.1
797.704	66.18
797.881	66
798.058	66.22
798.235	66.41
798.412	66.22
798.589	66.23
798.765	66.16
798.942	66.18
799.119	66.13
799.296	66.05
799.472	66.04
799.649	65.91
799.826	66.15
800.003	65.96
800.179	65.77
800.356	66.02
800.533	66.18
800.709	66.4
800.886	66.36
801.062	66.43
801.239	66.64
801.415	66.68
801.592	66.67
801.769	66.66
801.945	66.64
802.122	66.9
802.298	66.78
802.474	66.77
802.651	66.72
802.827	66.79
803.004	66.87
803.18	66.73
803.356	66.74
803.533	66.84
803.709	66.91
803.886	67.26
804.062	67.22
804.238	67.29
804.414	67.21
804.591	67.03
804.767	66.87
804.943	66.86
805.119	66.93
805.296	66.8
805.472	66.87
805.648	66.93
805.824	66.78
806	66.61
806.176	66.61
806.352	66.66
806.529	66.88
806.705	66.98
806.881	66.91
807.057	66.92
807.233	67.06
807.409	67.02
807.585	66.84
807.761	66.74
807.937	66.86
808.113	67.04
808.289	67.24
808.464	67.31
808.64	67.19
808.816	67.45
808.992	67.58
809.168	67.29
809.344	67.31
809.52	67.34
809.695	67.57
809.871	67.49
810.047	67.26
810.223	67.01
810.398	66.81
810.574	66.88
810.75	66.81
810.926	66.82
811.101	67.12
811.277	66.94
811.453	67.03
811.628	66.95
811.804	67.16
811.979	67.43
812.155	67.54
812.331	67.55
812.506	67.88
812.682	67.81
812.857	67.7
813.033	67.64
813.208	67.91
813.384	67.95
813.559	67.99
813.734	67.91
813.91	67.95
814.085	68
814.261	68.19
814.436	68.03
814.611	68.01
814.787	68.23
814.962	68.26
815.137	68.12
815.313	68.25
815.488	68.22
815.663	68.22
815.838	68.18
816.014	68.26
816.189	68.27
816.364	68.32
816.539	68.27
816.714	68.09
816.89	67.97
817.065	68.26
817.24	68.14
817.415	68.19
817.59	68.04
817.765	67.82
817.94	67.76
818.115	67.65
818.29	67.81
818.465	67.96
818.64	68.2
818.815	68.05
818.99	67.8
819.165	67.78
819.34	67.78
819.515	67.75
819.69	67.77
819.865	67.77
820.039	67.74
820.214	67.5
820.389	67.42
820.564	67.15
820.739	67.36
820.913	67.56
821.088	67.42
821.263	67.34
821.438	67.2
821.612	67.03
821.787	66.9
821.962	66.76
822.136	66.62
822.311	66.39
822.486	66.44
822.66	66.37
822.835	66.3
823.009	66.35
823.184	66.41
823.359	66.49
823.533	66.61
823.708	66.67
823.882	66.8
824.057	66.9
824.231	67.08
824.405	67.17
824.58	67.33
824.754	67.47
824.929	67.64
825.103	67.69
825.277	67.76
825.452	67.82
825.626	67.88
825.801	67.91
825.975	68.04
826.149	68.13
826.323	68.13
826.498	68.07
826.672	68.08
826.846	67.9
827.02	67.82
827.195	67.73
827.369	67.65
827.543	67.61
827.717	67.58
827.891	67.62
828.065	67.62
828.239	67.65
828.413	67.7
828.587	67.76
828.762	67.91
828.936	68.09
829.11	68.24
829.284	68.27
829.458	68.36
829.632	68.5
829.805	68.49
829.979	68.54
830.153	68.63
830.327	68.74
830.501	68.69
830.675	68.74
830.849	68.77
831.023	68.82
831.196	68.95
831.37	69.03
831.544	68.98
831.718	69.07
831.892	69.13
832.065	69.13
832.239	69.15
832.413	69.18
832.586	68.71
832.76	68.54
832.934	68.48
833.107	68.31
833.281	68.31
833.455	68.15
833.628	67.89
833.802	67.65
833.975	67.54
834.149	67.55
834.322	67.61
834.496	67.84
834.67	67.9
834.843	67.96
835.016	68.08
835.19	68.01
835.363	68.15
835.537	68.25
835.71	68.51
835.884	68.73
836.057	68.81
836.23	68.9
836.404	68.96
836.577	69.06
836.75	68.97
836.923	69.12
837.097	69.35
837.27	69.5
837.443	69.72
837.616	69.76
837.79	69.83
837.963	69.96
838.136	69.78
838.309	69.85
838.482	69.85
838.655	70
838.829	70.08
839.002	70.3
839.175	70.17
839.348	70.04
839.521	70.01
839.694	69.83
839.867	69.68
840.04	69.85
840.213	69.59
840.386	69.77
840.559	69.87
840.732	69.57
840.905	69.64
841.077	69.63
841.25	69.75
841.423	69.82
841.596	69.79
841.769	70.03
841.942	70.12
842.114	70.17
842.287	70.09
842.46	70.13
842.633	70.57
842.806	70.52
842.978	70.41
843.151	70.64
843.324	70.52
843.496	70.94
843.669	70.82
843.842	70.77
844.014	71.16
844.187	71.33
844.359	71.55
844.532	71.28
844.704	71.14
844.877	71.21
845.05	71.5
845.222	71.99
845.395	71.77
845.567	71.9
845.739	72.23
845.912	72.09
846.084	72.24
846.257	72.09
846.429	72.21
846.601	71.62
846.774	71.69
846.946	71.38
847.119	71.21
847.291	70.9
847.463	70.75
847.635	70.79
847.808	70.96
847.98	70.97
848.152	71.36
848.324	71.63
848.497	72.28
848.669	72.59
848.841	73.14
849.013	72.82
849.185	73.08
849.357	73.48
849.529	73.42
849.701	73.74
849.873	73.62
850.046	73.22
850.218	73.36
850.39	73.7
850.562	74.14
850.734	73.23
850.906	73.09
851.077	73
851.249	73.1
851.421	73.6
851.593	73.52
851.765	73.61
851.937	74.15
852.109	74.19
852.281	73.79
852.452	73.26
852.624	73.58
852.796	74.28
852.968	74.9
853.14	74.61
853.311	73.67
853.483	73.62
853.655	73.44
853.826	73.26
853.998	72.95
854.17	73.26
854.341	73.61
854.513	74.03
854.685	73.85
854.856	73.35
855.028	74.2
855.199	74.56
855.371	73.95
855.542	74.24
855.714	74.67
855.885	74.84
856.057	74.98
856.228	74.42
856.4	73.91
856.571	74.17
856.743	73.86
856.914	73.38
857.085	73.42
857.257	74.01
857.428	73.92
857.599	73.61
857.771	73.24
857.942	72.47
858.113	72.84
858.284	73.24
858.456	73.19
858.627	73.46
858.798	73.01
858.969	73.16
859.141	73.14
859.312	73.05
859.483	73.35
859.654	73.6
859.825	74.23
859.996	74.63
860.167	74.35
860.338	74.64
860.509	74.94
860.68	75.79
860.851	76.4
861.022	76.49
861.193	76.66
861.364	75.96
861.535	76.6
861.706	76.64
861.877	76.9
862.048	76.76
862.219	76.29
862.39	76.62
862.561	76.61
862.731	76.27
862.902	75.83
863.073	75.58
863.244	76.11
863.415	75.51
863.585	75.71
863.756	74.97
863.927	74.51
864.097	74.55
864.268	74.59
864.439	74.42
864.609	74.44
864.78	74.84
864.951	74.72
865.121	74.53
865.292	74.24
865.463	74.57
865.633	75.19
865.804	76.28
865.974	76.53
866.145	76.41
866.315	75.96
866.486	75.84
866.656	76.39
866.826	76.77
866.997	76.69
867.167	77.24
867.338	77.23
867.508	76.72
867.678	76.04
867.849	76.1
868.019	76.52
868.189	76.77
868.36	77.37
868.53	77.04
868.7	77.6
868.87	77.62
869.041	77.87
869.211	77.82
869.381	78.11
869.551	78.68
869.721	78.91
869.891	78.58
870.062	78.01
870.232	77.67
870.402	77.69
870.572	77.08
870.742	77.51
870.912	77.1
871.082	76.6
871.252	77.09
871.422	76.55
871.592	76.97
871.762	76.25
871.932	76.56
872.102	76.48
872.272	76.74
872.442	77.18
872.611	76.36
872.781	76.33
872.951	75.95
873.121	75.63
873.291	75.89
873.461	75.18
873.63	75.81
873.8	76.61
873.97	76.65
874.14	76.5
874.309	76.38
874.479	76.65
874.649	77.26
874.818	77.96
874.988	77.82
875.158	78.1
875.327	77.94
875.497	77.93
875.666	77.56
875.836	78.01
876.005	78.17
876.175	78.03
876.344	78.2
876.514	77.07
876.683	76.81
876.853	76.49
877.022	75.69
877.192	75.93
877.361	76.36
877.531	76
877.7	75.59
877.869	75.41
878.039	75.72
878.208	76.08
878.377	76.4
878.547	76.81
878.716	76.28
878.885	76.36
879.054	76.53
879.224	75.85
879.393	75.9
879.562	75.83
879.731	75.06
879.9	74.78
880.069	74.52
880.239	74.18
880.408	73.55
880.577	73.9
880.746	73.67
880.915	73.11
881.084	72.6
881.253	72.13
881.422	71.53
881.591	71.37
881.76	71.06
881.929	70.7
882.098	70.5
882.267	70.46
882.436	70.35
882.605	70.45
882.773	70.39
882.942	70.4
883.111	70.46
883.28	70.76
883.449	70.94
883.618	71.08
883.786	71.23
883.955	71.33
884.124	71.47
884.293	71.63
884.461	71.73
884.63	71.95
884.799	72.14
884.967	72.41
885.136	72.33
885.305	72.36
885.473	72.48
885.642	72.63
885.81	73.08
885.979	73.26
886.148	73.33
886.316	73.54
886.485	73.62
886.653	74.2
886.822	74.41
886.99	74.82
887.158	75.13
887.327	75.34
887.495	75.66
887.664	75.44
887.832	75.45
888	75.82
888.169	75.88
888.337	76.19
888.505	75.75
888.674	75.47
888.842	75.17
889.01	74.97
889.178	74.62
889.347	74.24
889.515	74.39
889.683	74.57
889.851	74.31
