Data from Bird_2_Reflection_2.txt Node
Date: Fri Jan 31 09:38:08 MST 2020
User: Lab User
Spectrometer: USB4J01344
Trigger mode: 0
Integration Time (sec): 1.047400E-1
Scans to average: 20
Electric dark correction enabled: false
Nonlinearity correction enabled: false
Boxcar width: 5
XAxis mode: Wavelengths
Number of Pixels in Spectrum: 3648
>>>>>Begin Spectral Data<<<<<
177.498	-155.73
177.717	-181.08
177.936	-236.63
178.155	-218.64
178.374	-252.92
178.593	-315.01
178.812	-638.14
179.031	-973.38
179.251	-1058.59
179.47	-1587.78
179.689	-1706.41
179.908	8740
180.127	360.03
180.346	257.82
180.565	187.12
180.784	147.26
181.003	114.17
181.222	99.2
181.441	83.62
181.66	80.09
181.879	74.65
182.098	72.53
182.316	72.41
182.535	81.04
182.754	78.01
182.973	76.63
183.192	83.71
183.411	82.97
183.63	84.31
183.849	88
184.067	87.19
184.286	86.11
184.505	85.43
184.724	86.25
184.943	77.8
185.161	80.6
185.38	79.01
185.599	75.06
185.818	74.24
186.036	74.95
186.255	74.2
186.474	74.76
186.693	75.3
186.911	73.12
187.13	73.27
187.349	76.69
187.567	73.92
187.786	74.94
188.004	75.59
188.223	80.23
188.442	77.3
188.66	78.04
188.879	80.38
189.097	77.29
189.316	78.87
189.535	75.01
189.753	77.21
189.972	83.46
190.19	84.98
190.409	84.55
190.627	87.58
190.846	89.37
191.064	92.35
191.283	85.77
191.501	93.6
191.719	95.13
191.938	95.29
192.156	93.83
192.375	87.94
192.593	81.01
192.811	82.02
193.03	82.79
193.248	83.52
193.467	82.12
193.685	84.19
193.903	78.81
194.121	80.18
194.34	78.25
194.558	78.5
194.776	78.37
194.995	83.17
195.213	82.71
195.431	75.47
195.649	72.09
195.868	68.6
196.086	66.68
196.304	64.53
196.522	63.19
196.74	66.76
196.958	60.75
197.177	63.09
197.395	60.31
197.613	61.49
197.831	63.54
198.049	65.5
198.267	67.66
198.485	68.93
198.703	73.79
198.921	75.22
199.139	78.54
199.358	85.03
199.576	81.29
199.794	81.83
200.012	79.32
200.23	78.25
200.448	78.39
200.666	79.16
200.883	82.95
201.101	81.87
201.319	82.31
201.537	80.62
201.755	78.55
201.973	84.27
202.191	85.79
202.409	87.12
202.627	82.58
202.845	81.95
203.062	79.59
203.28	73.62
203.498	72.67
203.716	69.57
203.934	68.39
204.151	67.97
204.369	64.81
204.587	62.49
204.805	64.79
205.022	69.46
205.24	70.41
205.458	70.83
205.676	73.62
205.893	75.36
206.111	74.25
206.329	72.41
206.546	71.5
206.764	70.99
206.982	72.61
207.199	71.12
207.417	67.95
207.634	64.68
207.852	63.72
208.07	62.72
208.287	60.71
208.505	63.3
208.722	60.91
208.94	58.76
209.157	59.2
209.375	56.33
209.592	56.77
209.81	60.98
210.027	62.65
210.245	60.95
210.462	62.37
210.68	62.02
210.897	59.74
211.115	62.17
211.332	62.77
211.549	59.71
211.767	66.2
211.984	62.33
212.201	59.22
212.419	57.92
212.636	61.09
212.854	58.83
213.071	61.33
213.288	63.57
213.505	61.94
213.723	65.43
213.94	69.5
214.157	65.13
214.374	69.6
214.592	67.92
214.809	71.34
215.026	68.82
215.243	69.06
215.461	67.83
215.678	67.17
215.895	73.29
216.112	73.51
216.329	69.91
216.546	72.68
216.763	69.94
216.981	74.37
217.198	70.72
217.415	71.09
217.632	71.24
217.849	71.77
218.066	70.78
218.283	65.53
218.5	62.68
218.717	64.19
218.934	62.76
219.151	65.15
219.368	64.04
219.585	60.86
219.802	61.92
220.019	62.26
220.236	58.7
220.453	58.27
220.67	58.03
220.887	58.94
221.103	54.58
221.32	52.52
221.537	53.24
221.754	52.37
221.971	53.4
222.188	52.42
222.405	50.45
222.621	52.87
222.838	53.71
223.055	52.93
223.272	50.72
223.488	53.78
223.705	53.75
223.922	51.38
224.139	53.68
224.355	56.65
224.572	56.79
224.789	58.77
225.005	56.63
225.222	55.54
225.439	53.68
225.655	56.43
225.872	56.42
226.089	55.64
226.305	55.5
226.522	53
226.738	48.26
226.955	45.85
227.172	41.67
227.388	38.69
227.605	36.72
227.821	35.29
228.038	31.46
228.254	29.56
228.471	28.49
228.687	26.41
228.904	26.18
229.12	27.43
229.337	27.39
229.553	27.66
229.77	27.75
229.986	27.6
230.202	27.46
230.419	28.76
230.635	30.25
230.851	29.74
231.068	30.1
231.284	30.14
231.501	29.15
231.717	28.81
231.933	29.41
232.149	29.23
232.366	30.43
232.582	29.57
232.798	28.89
233.015	26.6
233.231	26.43
233.447	27.32
233.663	26.58
233.879	26.24
234.096	25.51
234.312	25.02
234.528	24.97
234.744	23.65
234.96	24.33
235.176	24.81
235.393	25.09
235.609	24.79
235.825	23.88
236.041	23.59
236.257	22.66
236.473	22.94
236.689	23.09
236.905	22.51
237.121	22.32
237.337	22.08
237.553	21.62
237.769	21.31
237.985	21.79
238.201	21.17
238.417	20.68
238.633	20.6
238.849	20.62
239.065	19.36
239.281	18.91
239.497	18.47
239.713	17.7
239.928	16.93
240.144	16.66
240.36	15.77
240.576	15.25
240.792	14.61
241.008	14.68
241.223	13.75
241.439	13.5
241.655	13.23
241.871	12.88
242.087	12.82
242.302	12.62
242.518	12.49
242.734	12.43
242.95	12.52
243.165	12.65
243.381	12.48
243.597	12.79
243.812	13.14
244.028	13.38
244.244	13.72
244.459	13.76
244.675	13.79
244.89	13.57
245.106	13.25
245.322	12.8
245.537	12.26
245.753	11.85
245.968	11.41
246.184	11.13
246.399	10.84
246.615	10.66
246.83	10.65
247.046	10.63
247.261	10.65
247.477	10.68
247.692	10.67
247.908	10.63
248.123	10.61
248.339	10.73
248.554	10.77
248.769	11.08
248.985	11.32
249.2	11.31
249.416	11.4
249.631	11.45
249.846	11.42
250.062	11.56
250.277	11.65
250.492	11.8
250.707	11.77
250.923	11.61
251.138	11.24
251.353	11.08
251.569	11.02
251.784	11.01
251.999	11.01
252.214	11.05
252.429	11.05
252.645	11.36
252.86	11.41
253.075	11.42
253.29	11.55
253.505	11.77
253.72	11.84
253.935	12.11
254.151	12.47
254.366	12.52
254.581	12.73
254.796	12.71
255.011	12.64
255.226	12.45
255.441	12.66
255.656	12.39
255.871	12.33
256.086	12.28
256.301	12.07
256.516	11.77
256.731	11.74
256.946	11.58
257.161	11.62
257.376	11.29
257.591	11.3
257.806	11.04
258.02	10.97
258.235	10.67
258.45	10.43
258.665	10.26
258.88	10.07
259.095	9.83
259.31	9.66
259.524	9.53
259.739	9.58
259.954	9.55
260.169	9.52
260.383	9.57
260.598	9.61
260.813	9.6
261.028	9.65
261.242	9.68
261.457	9.81
261.672	10.04
261.886	10.28
262.101	10.32
262.316	10.25
262.53	10.37
262.745	10.33
262.96	10.45
263.174	10.62
263.389	10.63
263.603	10.8
263.818	10.88
264.033	10.81
264.247	10.8
264.462	10.75
264.676	10.84
264.891	10.95
265.105	11
265.32	10.71
265.534	10.51
265.749	10.35
265.963	10.23
266.178	10.24
266.392	10.19
266.606	10.1
266.821	10.05
267.035	10.07
267.25	9.8
267.464	9.7
267.678	9.84
267.893	9.8
268.107	9.82
268.321	9.92
268.536	9.91
268.75	9.95
268.964	10.03
269.179	10.13
269.393	8.21
269.607	8.25
269.821	8.26
270.036	8.08
270.25	8.22
270.464	8.22
270.678	8.11
270.892	8.14
271.106	8.16
271.321	8.09
271.535	8.12
271.749	9.52
271.963	9.5
272.177	9.42
272.391	9.52
272.605	9.48
272.819	9.53
273.033	9.57
273.248	9.53
273.462	9.51
273.676	9.61
273.89	9.53
274.104	9.63
274.318	9.67
274.532	9.77
274.746	9.7
274.96	9.79
275.173	9.93
275.387	9.92
275.601	9.99
275.815	10.05
276.029	9.96
276.243	10.07
276.457	10.05
276.671	10.1
276.885	10.09
277.098	10.1
277.312	10.04
277.526	9.8
277.74	9.87
277.954	9.79
278.167	9.75
278.381	9.84
278.595	9.82
278.809	9.88
279.022	9.84
279.236	9.83
279.45	9.91
279.663	9.89
279.877	9.85
280.091	9.73
280.304	9.75
280.518	9.73
280.732	9.6
280.945	9.52
281.159	9.43
281.373	9.36
281.586	9.32
281.8	9.27
282.013	9.27
282.227	9.34
282.44	9.3
282.654	9.21
282.867	9.19
283.081	9.19
283.294	9.16
283.508	9.1
283.721	9.07
283.935	8.99
284.148	8.95
284.362	8.9
284.575	8.88
284.789	8.85
285.002	8.85
285.215	8.86
285.429	8.82
285.642	8.77
285.855	8.79
286.069	8.83
286.282	8.9
286.495	8.9
286.709	8.9
286.922	8.92
287.135	8.98
287.348	8.97
287.562	8.99
287.775	9.03
287.988	9.12
288.201	9.12
288.415	9.12
288.628	9.09
288.841	9.05
289.054	9.08
289.267	9.05
289.48	9.06
289.694	9.02
289.907	8.93
290.12	8.9
290.333	8.89
290.546	8.9
290.759	8.91
290.972	8.89
291.185	8.87
291.398	8.81
291.611	8.8
291.824	8.81
292.037	8.8
292.25	8.87
292.463	8.85
292.676	8.86
292.889	8.78
293.102	8.77
293.315	8.77
293.528	8.83
293.741	8.85
293.954	8.89
294.166	8.86
294.379	8.92
294.592	8.94
294.805	8.97
295.018	8.88
295.231	8.88
295.443	8.85
295.656	8.84
295.869	8.87
296.082	8.77
296.295	8.74
296.507	8.65
296.72	8.61
296.933	8.54
297.145	8.5
297.358	8.52
297.571	8.55
297.783	8.54
297.996	8.5
298.209	8.45
298.421	8.5
298.634	8.48
298.847	8.51
299.059	8.61
299.272	8.65
299.484	8.69
299.697	8.73
299.91	8.66
300.122	8.63
300.335	8.7
300.547	8.71
300.76	8.75
300.972	8.75
301.185	8.78
301.397	8.71
301.609	8.75
301.822	8.73
302.034	8.77
302.247	8.84
302.459	8.91
302.672	8.91
302.884	8.96
303.096	8.95
303.309	8.93
303.521	8.96
303.733	9.02
303.946	8.99
304.158	9
304.37	9
304.583	9.02
304.795	9.04
305.007	8.96
305.219	8.96
305.432	8.99
305.644	9.02
305.856	9.02
306.068	8.93
306.28	8.95
306.493	8.98
306.705	8.96
306.917	8.96
307.129	8.96
307.341	9.02
307.553	8.99
307.765	8.92
307.977	9.02
308.189	8.99
308.402	8.99
308.614	8.94
308.826	8.92
309.038	8.94
309.25	8.89
309.462	8.86
309.674	8.87
309.886	8.88
310.098	8.88
310.31	8.79
310.522	8.81
310.733	8.8
310.945	8.78
311.157	8.78
311.369	8.74
311.581	8.77
311.793	8.79
312.005	8.78
312.217	8.77
312.428	8.86
312.64	8.86
312.852	8.95
313.064	8.98
313.276	9.1
313.487	9.12
313.699	9.18
313.911	9.14
314.123	9.12
314.334	9.19
314.546	9.24
314.758	9.19
314.97	9.21
315.181	9.13
315.393	9.17
315.604	9.19
315.816	9.29
316.028	9.29
316.239	9.38
316.451	9.34
316.663	9.33
316.874	9.34
317.086	9.37
317.297	9.4
317.509	9.4
317.72	9.41
317.932	9.41
318.143	9.35
318.355	9.32
318.566	9.3
318.778	9.38
318.989	9.36
319.201	9.34
319.412	9.26
319.624	9.34
319.835	9.38
320.046	9.42
320.258	9.33
320.469	9.3
320.68	9.35
320.892	9.38
321.103	9.41
321.314	9.35
321.526	9.39
321.737	9.47
321.948	9.43
322.16	9.43
322.371	9.39
322.582	9.36
322.793	9.35
323.005	9.36
323.216	9.27
323.427	9.2
323.638	9.18
323.849	9.07
324.06	9
324.272	8.95
324.483	8.9
324.694	8.89
324.905	8.94
325.116	8.91
325.327	8.83
325.538	8.86
325.749	8.86
325.96	8.9
326.171	8.93
326.382	9
326.593	9.05
326.804	9.07
327.015	9.05
327.226	9.07
327.437	9.12
327.648	9.16
327.859	9.25
328.07	9.36
328.281	9.39
328.492	9.4
328.703	9.4
328.914	9.33
329.125	9.4
329.335	9.4
329.546	9.37
329.757	9.37
329.968	9.35
330.179	9.29
330.39	9.3
330.6	9.37
330.811	9.35
331.022	9.42
331.233	9.47
331.443	9.45
331.654	9.35
331.865	9.4
332.075	9.36
332.286	9.28
332.497	9.3
332.707	9.19
332.918	9.13
333.129	9.19
333.339	9.14
333.55	9.09
333.761	9.08
333.971	9.19
334.182	9.14
334.392	9.21
334.603	9.28
334.813	9.21
335.024	9.28
335.234	9.23
335.445	9.23
335.655	9.2
335.866	9.22
336.076	9.16
336.287	9.15
336.497	9.13
336.708	9.12
336.918	9.12
337.128	9.21
337.339	9.22
337.549	9.27
337.759	9.26
337.97	9.21
338.18	9.23
338.39	9.28
338.601	9.39
338.811	9.43
339.021	9.43
339.232	9.45
339.442	9.35
339.652	9.36
339.862	9.35
340.073	9.4
340.283	9.54
340.493	9.5
340.703	9.45
340.913	9.32
341.124	9.28
341.334	9.29
341.544	9.28
341.754	9.28
341.964	9.25
342.174	9.25
342.384	9.22
342.594	9.18
342.804	9.25
343.014	9.32
343.224	9.36
343.435	9.38
343.645	9.29
343.855	9.29
344.065	9.23
344.274	9.23
344.484	9.21
344.694	9.18
344.904	9.14
345.114	9.08
345.324	9.02
345.534	8.94
345.744	8.92
345.954	8.95
346.164	8.94
346.374	9.01
346.583	8.95
346.793	8.97
347.003	8.94
347.213	8.91
347.423	8.94
347.632	8.98
347.842	9.04
348.052	9.08
348.262	9.15
348.471	9.13
348.681	9.1
348.891	9.15
349.1	9.17
349.31	9.25
349.52	9.27
349.729	9.33
349.939	9.31
350.149	9.35
350.358	9.32
350.568	9.27
350.778	9.27
350.987	9.36
351.197	9.43
351.406	9.62
351.616	9.57
351.825	9.62
352.035	9.55
352.244	9.57
352.454	9.53
352.663	9.55
352.873	9.61
353.082	9.62
353.292	9.58
353.501	9.53
353.711	9.35
353.92	9.4
354.129	9.35
354.339	9.34
354.548	9.35
354.757	9.35
354.967	9.37
355.176	9.35
355.385	9.33
355.595	9.29
355.804	9.27
356.013	9.27
356.223	9.18
356.432	9.14
356.641	9.13
356.85	9.1
357.059	9.08
357.269	9.03
357.478	9.06
357.687	9.05
357.896	9.09
358.105	9.14
358.314	9.15
358.524	9.19
358.733	9.25
358.942	9.25
359.151	9.22
359.36	9.23
359.569	9.25
359.778	9.21
359.987	9.22
360.196	9.17
360.405	9.11
360.614	9.04
360.823	9.01
361.032	9.02
361.241	9.02
361.45	9.04
361.659	9.07
361.868	9.09
362.077	9.12
362.286	9.16
362.495	9.2
362.704	9.22
362.912	9.26
363.121	9.28
363.33	9.26
363.539	9.26
363.748	9.3
363.957	9.28
364.165	9.29
364.374	9.25
364.583	9.21
364.792	9.17
365	9.17
365.209	9.18
365.418	9.17
365.626	9.23
365.835	9.26
366.044	9.25
366.253	9.3
366.461	9.31
366.67	9.3
366.878	9.34
367.087	9.36
367.296	9.38
367.504	9.41
367.713	9.45
367.921	9.44
368.13	9.46
368.338	9.45
368.547	9.43
368.755	9.44
368.964	9.48
369.172	9.5
369.381	9.57
369.589	9.55
369.798	9.56
370.006	9.58
370.215	9.55
370.423	9.47
370.632	9.48
370.84	9.47
371.048	9.47
371.257	9.46
371.465	9.46
371.673	9.46
371.882	9.49
372.09	9.46
372.298	9.51
372.507	9.54
372.715	9.61
372.923	9.63
373.131	9.64
373.34	9.65
373.548	9.67
373.756	9.67
373.964	9.65
374.172	9.67
374.381	9.71
374.589	9.71
374.797	9.71
375.005	9.75
375.213	9.74
375.421	9.7
375.629	9.67
375.837	9.61
376.045	9.58
376.254	9.55
376.462	9.5
376.67	9.51
376.878	9.48
377.086	9.44
377.294	9.41
377.502	9.42
377.71	9.48
377.918	9.5
378.126	9.55
378.333	9.62
378.541	9.69
378.749	9.7
378.957	9.68
379.165	9.66
379.373	9.7
379.581	9.72
379.789	9.76
379.996	9.74
380.204	9.78
380.412	9.77
380.62	9.74
380.828	9.71
381.035	9.71
381.243	9.76
381.451	9.8
381.659	9.79
381.866	9.83
382.074	9.82
382.282	9.85
382.489	9.82
382.697	9.82
382.905	9.82
383.112	9.83
383.32	9.85
383.528	9.82
383.735	9.8
383.943	9.82
384.15	9.79
384.358	9.78
384.565	9.73
384.773	9.76
384.981	9.78
385.188	9.76
385.396	9.8
385.603	9.81
385.811	9.79
386.018	9.78
386.225	9.78
386.433	9.81
386.64	9.86
386.848	9.9
387.055	9.9
387.263	9.87
387.47	9.9
387.677	9.86
387.885	9.87
388.092	9.89
388.299	9.94
388.507	9.91
388.714	9.91
388.921	9.88
389.128	9.87
389.336	9.83
389.543	9.86
389.75	9.85
389.957	9.85
390.165	9.86
390.372	9.84
390.579	9.81
390.786	9.87
390.993	9.84
391.2	9.83
391.408	9.84
391.615	9.88
391.822	9.91
392.029	9.88
392.236	9.88
392.443	9.86
392.65	9.87
392.857	9.86
393.064	9.85
393.271	9.84
393.478	9.84
393.685	9.86
393.892	9.82
394.099	9.79
394.306	9.8
394.513	9.78
394.72	9.79
394.927	9.81
395.134	9.84
395.341	9.85
395.547	9.9
395.754	9.91
395.961	9.91
396.168	9.96
396.375	10.03
396.582	10.08
396.788	10.13
396.995	10.15
397.202	10.1
397.409	10.11
397.616	10.1
397.822	10.08
398.029	10.09
398.236	10.11
398.442	10.1
398.649	10.04
398.856	10.09
399.062	10.07
399.269	10.06
399.476	10.11
399.682	10.12
399.889	10.14
400.096	10.17
400.302	10.16
400.509	10.17
400.715	10.17
400.922	10.18
401.128	10.12
401.335	10.13
401.541	10.16
401.748	10.15
401.954	10.16
402.161	10.17
402.367	10.14
402.574	10.18
402.78	10.13
402.986	10.13
403.193	10.14
403.399	10.16
403.606	10.18
403.812	10.17
404.018	10.19
404.225	10.21
404.431	10.21
404.637	10.2
404.844	10.17
405.05	10.23
405.256	10.23
405.462	10.26
405.669	10.26
405.875	10.26
406.081	10.28
406.287	10.28
406.494	10.25
406.7	10.28
406.906	10.29
407.112	10.34
407.318	10.34
407.524	10.36
407.73	10.33
407.937	10.35
408.143	10.36
408.349	10.33
408.555	10.34
408.761	10.37
408.967	10.35
409.173	10.36
409.379	10.34
409.585	10.33
409.791	10.34
409.997	10.35
410.203	10.35
410.409	10.36
410.615	10.39
410.821	10.41
411.027	10.45
411.233	10.49
411.438	10.51
411.644	10.5
411.85	10.52
412.056	10.53
412.262	10.57
412.468	10.59
412.673	10.6
412.879	10.61
413.085	10.62
413.291	10.62
413.497	10.62
413.702	10.62
413.908	10.63
414.114	10.64
414.319	10.63
414.525	10.62
414.731	10.62
414.937	10.64
415.142	10.62
415.348	10.6
415.553	10.59
415.759	10.62
415.965	10.62
416.17	10.64
416.376	10.65
416.581	10.67
416.787	10.66
416.992	10.66
417.198	10.64
417.404	10.65
417.609	10.67
417.815	10.67
418.02	10.64
418.225	10.65
418.431	10.64
418.636	10.62
418.842	10.63
419.047	10.62
419.253	10.64
419.458	10.66
419.663	10.66
419.869	10.66
420.074	10.66
420.279	10.65
420.485	10.64
420.69	10.63
420.895	10.65
421.101	10.65
421.306	10.68
421.511	10.67
421.716	10.68
421.922	10.69
422.127	10.7
422.332	10.73
422.537	10.76
422.742	10.77
422.947	10.8
423.153	10.82
423.358	10.82
423.563	10.83
423.768	10.84
423.973	10.82
424.178	10.84
424.383	10.84
424.588	10.84
424.793	10.85
424.998	10.87
425.203	10.87
425.408	10.89
425.613	10.91
425.818	10.92
426.023	10.94
426.228	10.98
426.433	11
426.638	11.04
426.843	11.07
427.048	11.1
427.253	11.1
427.458	11.14
427.663	11.15
427.867	11.19
428.072	11.22
428.277	11.25
428.482	11.27
428.687	11.27
428.892	11.25
429.096	11.26
429.301	11.29
429.506	11.32
429.711	11.34
429.915	11.4
430.12	11.37
430.325	11.35
430.529	11.37
430.734	11.4
430.939	11.42
431.143	11.46
431.348	11.48
431.553	11.44
431.757	11.43
431.962	11.43
432.166	11.39
432.371	11.41
432.575	11.44
432.78	11.43
432.984	11.39
433.189	11.4
433.394	11.41
433.598	11.39
433.802	11.44
434.007	11.48
434.211	11.46
434.416	11.49
434.62	11.53
434.825	11.55
435.029	11.59
435.233	11.63
435.438	11.65
435.642	11.68
435.846	11.73
436.051	11.74
436.255	11.72
436.459	11.76
436.664	11.77
436.868	11.76
437.072	11.77
437.276	11.76
437.481	11.77
437.685	11.76
437.889	11.75
438.093	11.72
438.298	11.73
438.502	11.74
438.706	11.74
438.91	11.75
439.114	11.76
439.318	11.76
439.522	11.76
439.726	11.75
439.931	11.77
440.135	11.77
440.339	11.79
440.543	11.8
440.747	11.83
440.951	11.86
441.155	11.86
441.359	11.89
441.563	11.9
441.767	11.92
441.971	11.96
442.175	11.98
442.378	12.01
442.582	12.02
442.786	12.06
442.99	12.07
443.194	12.07
443.398	12.09
443.602	12.12
443.806	12.15
444.009	12.15
444.213	12.16
444.417	12.19
444.621	12.2
444.825	12.2
445.028	12.19
445.232	12.19
445.436	12.21
445.639	12.23
445.843	12.2
446.047	12.2
446.251	12.22
446.454	12.23
446.658	12.22
446.861	12.22
447.065	12.25
447.269	12.26
447.472	12.29
447.676	12.31
447.879	12.33
448.083	12.38
448.287	12.39
448.49	12.4
448.694	12.41
448.897	12.46
449.101	12.5
449.304	12.51
449.507	12.55
449.711	12.56
449.914	12.57
450.118	12.57
450.321	12.59
450.525	12.62
450.728	12.67
450.931	12.72
451.135	12.71
451.338	12.73
451.541	12.75
451.745	12.76
451.948	12.78
452.151	12.81
452.355	12.84
452.558	12.83
452.761	12.84
452.964	12.84
453.168	12.84
453.371	12.85
453.574	12.86
453.777	12.89
453.98	12.9
454.183	12.92
454.387	12.93
454.59	12.95
454.793	12.96
454.996	12.98
455.199	12.99
455.402	13.02
455.605	13.05
455.808	13.05
456.011	13.06
456.214	13.09
456.417	13.08
456.62	13.07
456.823	13.09
457.026	13.09
457.229	13.15
457.432	13.19
457.635	13.2
457.838	13.2
458.041	13.18
458.244	13.17
458.447	13.16
458.65	13.15
458.852	13.18
459.055	13.17
459.258	13.18
459.461	13.16
459.664	13.16
459.867	13.15
460.069	13.16
460.272	13.2
460.475	13.23
460.678	13.26
460.88	13.29
461.083	13.31
461.286	13.35
461.488	13.38
461.691	13.41
461.894	13.45
462.096	13.51
462.299	13.55
462.502	13.57
462.704	13.58
462.907	13.61
463.109	13.63
463.312	13.64
463.514	13.68
463.717	13.68
463.92	13.69
464.122	13.71
464.325	13.71
464.527	13.72
464.729	13.76
464.932	13.8
465.134	13.84
465.337	13.86
465.539	13.9
465.742	13.89
465.944	13.92
466.146	13.93
466.349	13.94
466.551	13.95
466.753	13.98
466.956	13.98
467.158	13.98
467.36	13.98
467.563	14.01
467.765	14.02
467.967	14.04
468.169	14.05
468.372	14.08
468.574	14.09
468.776	14.1
468.978	14.11
469.18	14.13
469.383	14.16
469.585	14.18
469.787	14.19
469.989	14.21
470.191	14.22
470.393	14.26
470.595	14.27
470.797	14.3
470.999	14.33
471.201	14.32
471.403	14.35
471.606	14.37
471.808	14.4
472.009	14.39
472.211	14.39
472.413	14.41
472.615	14.42
472.817	14.46
473.019	14.49
473.221	14.51
473.423	14.53
473.625	14.53
473.827	14.56
474.029	14.57
474.231	14.6
474.432	14.63
474.634	14.64
474.836	14.65
475.038	14.66
475.24	14.66
475.441	14.68
475.643	14.7
475.845	14.73
476.046	14.75
476.248	14.75
476.45	14.75
476.652	14.76
476.853	14.79
477.055	14.8
477.257	14.8
477.458	14.83
477.66	14.84
477.861	14.85
478.063	14.87
478.265	14.87
478.466	14.9
478.668	14.93
478.869	14.96
479.071	14.97
479.272	14.98
479.474	15.02
479.675	15.04
479.877	15.05
480.078	15.08
480.28	15.1
480.481	15.11
480.682	15.12
480.884	15.12
481.085	15.13
481.287	15.15
481.488	15.15
481.689	15.14
481.891	15.14
482.092	15.13
482.293	15.11
482.495	15.1
482.696	15.1
482.897	15.11
483.098	15.14
483.3	15.16
483.501	15.18
483.702	15.22
483.903	15.24
484.104	15.26
484.306	15.29
484.507	15.32
484.708	15.35
484.909	15.38
485.11	15.41
485.311	15.42
485.512	15.44
485.713	15.47
485.914	15.48
486.116	15.48
486.317	15.5
486.518	15.52
486.719	15.53
486.92	15.55
487.121	15.56
487.322	15.59
487.523	15.61
487.723	15.62
487.924	15.63
488.125	15.66
488.326	15.69
488.527	15.7
488.728	15.73
488.929	15.75
489.13	15.76
489.331	15.81
489.531	15.82
489.732	15.85
489.933	15.87
490.134	15.89
490.335	15.92
490.535	15.93
490.736	15.95
490.937	15.97
491.137	15.99
491.338	16.01
491.539	16.02
491.74	16.04
491.94	16.06
492.141	16.08
492.341	16.09
492.542	16.11
492.743	16.13
492.943	16.16
493.144	16.19
493.344	16.23
493.545	16.27
493.746	16.31
493.946	16.34
494.147	16.37
494.347	16.43
494.548	16.48
494.748	16.51
494.949	16.55
495.149	16.57
495.349	16.61
495.55	16.65
495.75	16.66
495.951	16.67
496.151	16.71
496.351	16.73
496.552	16.74
496.752	16.76
496.952	16.77
497.153	16.8
497.353	16.84
497.553	16.87
497.754	16.88
497.954	16.91
498.154	16.94
498.354	16.93
498.554	16.95
498.755	16.99
498.955	17.02
499.155	17.06
499.355	17.09
499.555	17.1
499.755	17.1
499.956	17.14
500.156	17.16
500.356	17.18
500.556	17.22
500.756	17.26
500.956	17.27
501.156	17.3
501.356	17.3
501.556	17.32
501.756	17.35
501.956	17.4
502.156	17.42
502.356	17.46
502.556	17.48
502.756	17.52
502.956	17.53
503.156	17.55
503.356	17.56
503.555	17.57
503.755	17.6
503.955	17.63
504.155	17.66
504.355	17.68
504.555	17.68
504.754	17.71
504.954	17.72
505.154	17.75
505.354	17.79
505.553	17.83
505.753	17.9
505.953	17.9
506.153	17.92
506.352	17.94
506.552	17.96
506.752	18
506.951	18.01
507.151	18.02
507.351	18.04
507.55	18.06
507.75	18.07
507.949	18.07
508.149	18.1
508.348	18.12
508.548	18.13
508.747	18.14
508.947	18.16
509.146	18.19
509.346	18.22
509.545	18.23
509.745	18.23
509.944	18.28
510.144	18.32
510.343	18.36
510.543	18.39
510.742	18.42
510.941	18.45
511.141	18.49
511.34	18.5
511.539	18.53
511.739	18.57
511.938	18.61
512.137	18.63
512.337	18.63
512.536	18.66
512.735	18.68
512.934	18.72
513.134	18.73
513.333	18.75
513.532	18.8
513.731	18.83
513.93	18.83
514.129	18.87
514.329	18.9
514.528	18.91
514.727	18.93
514.926	18.95
515.125	18.96
515.324	19.02
515.523	19.06
515.722	19.1
515.921	19.12
516.12	19.14
516.319	19.16
516.518	19.17
516.717	19.18
516.916	19.19
517.115	19.21
517.314	19.24
517.513	19.22
517.712	19.2
517.911	19.21
518.11	19.25
518.309	19.27
518.507	19.29
518.706	19.31
518.905	19.33
519.104	19.37
519.303	19.4
519.501	19.43
519.7	19.48
519.899	19.53
520.098	19.56
520.296	19.6
520.495	19.65
520.694	19.71
520.893	19.74
521.091	19.8
521.29	19.8
521.489	19.83
521.687	19.88
521.886	19.91
522.084	19.94
522.283	19.96
522.482	19.97
522.68	19.99
522.879	19.98
523.077	20.02
523.276	20.02
523.474	20.07
523.673	20.1
523.871	20.09
524.07	20.1
524.268	20.13
524.467	20.16
524.665	20.18
524.863	20.19
525.062	20.22
525.26	20.23
525.459	20.25
525.657	20.27
525.855	20.27
526.054	20.31
526.252	20.33
526.45	20.34
526.649	20.35
526.847	20.36
527.045	20.35
527.243	20.37
527.442	20.38
527.64	20.42
527.838	20.45
528.036	20.49
528.234	20.52
528.433	20.56
528.631	20.6
528.829	20.64
529.027	20.66
529.225	20.7
529.423	20.74
529.621	20.78
529.819	20.81
530.017	20.84
530.215	20.88
530.414	20.91
530.612	20.94
530.81	20.95
531.008	20.99
531.206	21.04
531.403	21.08
531.601	21.1
531.799	21.13
531.997	21.14
532.195	21.16
532.393	21.18
532.591	21.22
532.789	21.24
532.987	21.26
533.184	21.27
533.382	21.3
533.58	21.32
533.778	21.35
533.976	21.37
534.173	21.41
534.371	21.45
534.569	21.48
534.767	21.51
534.964	21.54
535.162	21.58
535.36	21.63
535.557	21.65
535.755	21.7
535.953	21.73
536.15	21.74
536.348	21.76
536.546	21.78
536.743	21.81
536.941	21.85
537.138	21.88
537.336	21.9
537.533	21.93
537.731	21.96
537.928	22
538.126	22.03
538.323	22.09
538.521	22.14
538.718	22.18
538.916	22.23
539.113	22.24
539.311	22.28
539.508	22.31
539.705	22.35
539.903	22.34
540.1	22.36
540.297	22.37
540.495	22.37
540.692	22.4
540.889	22.41
541.087	22.42
541.284	22.46
541.481	22.49
541.678	22.51
541.876	22.52
542.073	22.55
542.27	22.58
542.467	22.63
542.664	22.67
542.862	22.7
543.059	22.75
543.256	22.8
543.453	22.82
543.65	22.84
543.847	22.88
544.044	22.95
544.241	22.98
544.438	23.03
544.635	23.07
544.832	23.11
545.029	23.16
545.226	23.18
545.423	23.19
545.62	23.24
545.817	23.27
546.014	23.3
546.211	23.33
546.408	23.36
546.605	23.39
546.802	23.42
546.999	23.47
547.196	23.5
547.392	23.54
547.589	23.59
547.786	23.64
547.983	23.68
548.18	23.73
548.376	23.77
548.573	23.84
548.77	23.89
548.967	23.93
549.163	23.96
549.36	24.02
549.557	24.06
549.753	24.11
549.95	24.16
550.147	24.18
550.343	24.22
550.54	24.25
550.737	24.26
550.933	24.27
551.13	24.32
551.326	24.38
551.523	24.37
551.719	24.4
551.916	24.41
552.112	24.43
552.309	24.46
552.505	24.52
552.702	24.56
552.898	24.59
553.095	24.64
553.291	24.67
553.487	24.7
553.684	24.75
553.88	24.8
554.077	24.85
554.273	24.89
554.469	24.94
554.666	24.97
554.862	25.03
555.058	25.08
555.255	25.11
555.451	25.14
555.647	25.17
555.843	25.23
556.039	25.25
556.236	25.3
556.432	25.34
556.628	25.37
556.824	25.41
557.02	25.43
557.217	25.43
557.413	25.45
557.609	25.49
557.805	25.51
558.001	25.52
558.197	25.56
558.393	25.61
558.589	25.64
558.785	25.66
558.981	25.7
559.177	25.72
559.373	25.79
559.569	25.84
559.765	25.91
559.961	25.95
560.157	25.99
560.353	26
560.549	26.01
560.745	26.04
560.941	26.1
561.136	26.1
561.332	26.16
561.528	26.19
561.724	26.19
561.92	26.21
562.116	26.2
562.311	26.27
562.507	26.33
562.703	26.37
562.899	26.41
563.094	26.44
563.29	26.47
563.486	26.45
563.681	26.49
563.877	26.55
564.073	26.58
564.268	26.63
564.464	26.61
564.66	26.61
564.855	26.61
565.051	26.63
565.246	26.63
565.442	26.67
565.637	26.7
565.833	26.72
566.028	26.75
566.224	26.77
566.419	26.81
566.615	26.84
566.81	26.87
567.006	26.92
567.201	26.95
567.397	26.97
567.592	27
567.787	27.06
567.983	27.08
568.178	27.11
568.373	27.14
568.569	27.16
568.764	27.21
568.959	27.26
569.155	27.31
569.35	27.34
569.545	27.41
569.74	27.45
569.936	27.49
570.131	27.55
570.326	27.58
570.521	27.6
570.716	27.67
570.912	27.68
571.107	27.69
571.302	27.7
571.497	27.72
571.692	27.74
571.887	27.75
572.082	27.8
572.277	27.8
572.472	27.85
572.667	27.87
572.862	27.87
573.057	27.91
573.252	27.96
573.447	28
573.642	28.04
573.837	28.09
574.032	28.09
574.227	28.09
574.422	28.09
574.617	28.11
574.812	28.15
575.007	28.2
575.202	28.23
575.396	28.28
575.591	28.3
575.786	28.32
575.981	28.35
576.176	28.41
576.37	28.46
576.565	28.53
576.76	28.55
576.955	28.56
577.149	28.6
577.344	28.65
577.539	28.7
577.733	28.73
577.928	28.79
578.123	28.83
578.317	28.89
578.512	28.93
578.706	28.99
578.901	29.06
579.096	29.13
579.29	29.16
579.485	29.18
579.679	29.19
579.874	29.23
580.068	29.25
580.263	29.28
580.457	29.32
580.652	29.38
580.846	29.41
581.04	29.43
581.235	29.47
581.429	29.54
581.624	29.59
581.818	29.63
582.012	29.66
582.207	29.72
582.401	29.78
582.595	29.81
582.79	29.83
582.984	29.87
583.178	29.92
583.372	29.97
583.567	29.99
583.761	30.01
583.955	30.09
584.149	30.14
584.344	30.16
584.538	30.19
584.732	30.22
584.926	30.24
585.12	30.29
585.314	30.29
585.508	30.35
585.702	30.39
585.896	30.47
586.091	30.47
586.285	30.51
586.479	30.55
586.673	30.59
586.867	30.63
587.061	30.67
587.255	30.7
587.449	30.75
587.642	30.74
587.836	30.76
588.03	30.74
588.224	30.81
588.418	30.84
588.612	30.85
588.806	30.87
589	30.93
589.193	30.92
589.387	30.94
589.581	30.97
589.775	31.03
589.969	31.05
590.162	31.07
590.356	31.06
590.55	31.1
590.744	31.14
590.937	31.15
591.131	31.18
591.325	31.24
591.518	31.29
591.712	31.3
591.906	31.34
592.099	31.39
592.293	31.45
592.486	31.52
592.68	31.58
592.874	31.63
593.067	31.67
593.261	31.67
593.454	31.69
593.648	31.75
593.841	31.77
594.035	31.79
594.228	31.82
594.421	31.82
594.615	31.83
594.808	31.81
595.002	31.8
595.195	31.83
595.388	31.87
595.582	31.89
595.775	31.91
595.968	31.92
596.162	31.94
596.355	31.96
596.548	31.99
596.742	32.03
596.935	32.07
597.128	32.08
597.321	32.1
597.515	32.15
597.708	32.17
597.901	32.2
598.094	32.25
598.287	32.3
598.48	32.35
598.674	32.43
598.867	32.47
599.06	32.53
599.253	32.6
599.446	32.68
599.639	32.71
599.832	32.78
600.025	32.83
600.218	32.92
600.411	32.99
600.604	33.01
600.797	33.04
600.99	33.04
601.183	33.06
601.376	33.07
601.569	33.06
601.762	33.08
601.955	33.09
602.147	33.08
602.34	33.09
602.533	33.08
602.726	33.07
602.919	33.11
603.112	33.17
603.304	33.17
603.497	33.2
603.69	33.25
603.883	33.24
604.075	33.27
604.268	33.31
604.461	33.33
604.654	33.35
604.846	33.41
605.039	33.42
605.231	33.43
605.424	33.47
605.617	33.51
605.809	33.56
606.002	33.63
606.194	33.71
606.387	33.78
606.58	33.83
606.772	33.91
606.965	33.95
607.157	34.02
607.35	34.11
607.542	34.17
607.735	34.22
607.927	34.23
608.119	34.24
608.312	34.24
608.504	34.27
608.697	34.27
608.889	34.26
609.081	34.29
609.274	34.32
609.466	34.29
609.658	34.32
609.851	34.35
610.043	34.38
610.235	34.44
610.427	34.47
610.62	34.52
610.812	34.57
611.004	34.65
611.196	34.68
611.388	34.71
611.581	34.8
611.773	34.84
611.965	34.91
612.157	34.99
612.349	35.05
612.541	35.09
612.733	35.12
612.925	35.16
613.117	35.18
613.309	35.26
613.501	35.33
613.693	35.35
613.885	35.4
614.077	35.44
614.269	35.45
614.461	35.48
614.653	35.53
614.845	35.55
615.037	35.58
615.229	35.64
615.421	35.7
615.613	35.7
615.805	35.76
615.996	35.79
616.188	35.81
616.38	35.88
616.572	35.92
616.764	35.94
616.955	35.99
617.147	36.01
617.339	36.07
617.531	36.06
617.722	36.14
617.914	36.19
618.106	36.23
618.297	36.27
618.489	36.27
618.681	36.33
618.872	36.39
619.064	36.42
619.255	36.47
619.447	36.5
619.639	36.57
619.83	36.6
620.022	36.62
620.213	36.65
620.405	36.69
620.596	36.74
620.788	36.74
620.979	36.78
621.171	36.81
621.362	36.86
621.553	36.87
621.745	36.84
621.936	36.83
622.128	36.88
622.319	36.91
622.51	36.94
622.702	36.98
622.893	37.04
623.084	37.05
623.276	37.11
623.467	37.17
623.658	37.21
623.849	37.3
624.041	37.34
624.232	37.36
624.423	37.42
624.614	37.43
624.805	37.47
624.996	37.46
625.188	37.49
625.379	37.5
625.57	37.47
625.761	37.48
625.952	37.45
626.143	37.47
626.334	37.48
626.525	37.5
626.716	37.55
626.907	37.58
627.098	37.64
627.289	37.66
627.48	37.67
627.671	37.7
627.862	37.74
628.053	37.77
628.244	37.86
628.435	37.91
628.626	37.95
628.816	37.96
629.007	37.96
629.198	37.96
629.389	38
629.58	38.02
629.771	38.07
629.961	38.1
630.152	38.19
630.343	38.21
630.534	38.24
630.724	38.28
630.915	38.33
631.106	38.42
631.296	38.49
631.487	38.5
631.678	38.57
631.868	38.62
632.059	38.65
632.25	38.65
632.44	38.63
632.631	38.69
632.821	38.69
633.012	38.73
633.202	38.74
633.393	38.75
633.583	38.83
633.774	38.85
633.964	38.87
634.155	38.9
634.345	38.98
634.536	39.04
634.726	39.07
634.916	39.14
635.107	39.16
635.297	39.17
635.488	39.21
635.678	39.25
635.868	39.25
636.059	39.32
636.249	39.37
636.439	39.41
636.629	39.43
636.82	39.5
637.01	39.49
637.2	39.54
637.39	39.59
637.581	39.65
637.771	39.68
637.961	39.8
638.151	39.83
638.341	39.88
638.531	39.88
638.721	39.94
638.911	39.94
639.102	40.01
639.292	40.02
639.482	40.05
639.672	40.09
639.862	40.11
640.052	40.14
640.242	40.17
640.432	40.2
640.622	40.23
640.812	40.26
641.002	40.26
641.191	40.28
641.381	40.33
641.571	40.33
641.761	40.36
641.951	40.41
642.141	40.36
642.331	40.38
642.52	40.44
642.71	40.44
642.9	40.5
643.09	40.6
643.28	40.62
643.469	40.64
643.659	40.68
643.849	40.68
644.038	40.73
644.228	40.83
644.418	40.84
644.607	40.82
644.797	40.94
644.987	40.95
645.176	40.98
645.366	41.03
645.556	41.05
645.745	41.09
645.935	41.14
646.124	41.14
646.314	41.14
646.503	41.16
646.693	41.22
646.882	41.21
647.072	41.24
647.261	41.27
647.45	41.3
647.64	41.32
647.829	41.38
648.019	41.39
648.208	41.44
648.397	41.48
648.587	41.54
648.776	41.53
648.965	41.53
649.155	41.56
649.344	41.55
649.533	41.57
649.723	41.65
649.912	41.68
650.101	41.76
650.29	41.77
650.479	41.83
650.669	41.85
650.858	41.9
651.047	41.98
651.236	41.99
651.425	42.01
651.614	42.07
651.803	42.05
651.992	42.07
652.182	42.08
652.371	42.15
652.56	42.17
652.749	42.21
652.938	42.25
653.127	42.24
653.316	42.28
653.505	42.31
653.694	42.33
653.882	42.35
654.071	42.37
654.26	42.38
654.449	42.39
654.638	42.39
654.827	42.42
655.016	42.45
655.205	42.48
655.393	42.52
655.582	42.52
655.771	42.53
655.96	42.6
656.149	42.64
656.337	42.66
656.526	42.64
656.715	42.72
656.903	42.81
657.092	42.82
657.281	42.82
657.469	42.81
657.658	42.89
657.847	42.92
658.035	42.94
658.224	42.92
658.412	42.93
658.601	42.97
658.79	42.89
658.978	42.84
659.167	42.86
659.355	42.9
659.544	42.91
659.732	42.89
659.921	42.94
660.109	42.94
660.297	43.03
660.486	43.11
660.674	43.17
660.863	43.28
661.051	43.36
661.239	43.42
661.428	43.48
661.616	43.58
661.804	43.64
661.993	43.63
662.181	43.69
662.369	43.73
662.557	43.76
662.746	43.78
662.934	43.79
663.122	43.83
663.31	43.86
663.498	43.86
663.687	43.86
663.875	43.94
664.063	44.09
664.251	44.11
664.439	44.14
664.627	44.18
664.815	44.2
665.003	44.24
665.191	44.24
665.379	44.32
665.567	44.35
665.755	44.41
665.943	44.45
666.131	44.42
666.319	44.43
666.507	44.41
666.695	44.4
666.883	44.4
667.071	44.39
667.259	44.47
667.447	44.46
667.635	44.52
667.823	44.55
668.01	44.54
668.198	44.56
668.386	44.66
668.574	44.71
668.761	44.72
668.949	44.75
669.137	44.83
669.325	44.82
669.512	44.83
669.7	44.87
669.888	44.93
670.075	44.99
670.263	45.02
670.451	45.01
670.638	45.06
670.826	45.1
671.013	45.13
671.201	45.22
671.389	45.27
671.576	45.32
671.764	45.36
671.951	45.37
672.139	45.38
672.326	45.38
672.514	45.42
672.701	45.42
672.889	45.45
673.076	45.55
673.263	45.48
673.451	45.53
673.638	45.5
673.825	45.52
674.013	45.57
674.2	45.59
674.387	45.62
674.575	45.6
674.762	45.64
674.949	45.71
675.137	45.61
675.324	45.67
675.511	45.68
675.698	45.7
675.885	45.68
676.073	45.65
676.26	45.64
676.447	45.71
676.634	45.74
676.821	45.73
677.008	45.74
677.195	45.84
677.383	45.85
677.57	45.87
677.757	45.93
677.944	45.95
678.131	45.99
678.318	46.04
678.505	46.02
678.692	46.06
678.879	46.08
679.066	46.07
679.253	46.05
679.439	46.06
679.626	46.1
679.813	46.08
680	46.05
680.187	46.05
680.374	46.06
680.561	46.11
680.747	46.13
680.934	46.18
681.121	46.18
681.308	46.21
681.494	46.27
681.681	46.32
681.868	46.35
682.055	46.47
682.241	46.56
682.428	46.63
682.615	46.68
682.801	46.72
682.988	46.77
683.175	46.88
683.361	46.94
683.548	46.97
683.734	47
683.921	47.08
684.107	47.09
684.294	47.1
684.48	47.15
684.667	47.14
684.853	47.17
685.04	47.19
685.226	47.2
685.413	47.22
685.599	47.23
685.786	47.2
685.972	47.24
686.158	47.29
686.345	47.3
686.531	47.35
686.717	47.39
686.904	47.43
687.09	47.5
687.276	47.51
687.463	47.56
687.649	47.57
687.835	47.6
688.021	47.63
688.208	47.64
688.394	47.64
688.58	47.6
688.766	47.65
688.952	47.66
689.138	47.66
689.324	47.7
689.511	47.72
689.697	47.74
689.883	47.81
690.069	47.8
690.255	47.86
690.441	47.9
690.627	47.94
690.813	47.96
690.999	48
691.185	48.02
691.371	48.02
691.557	48.08
691.743	48.14
691.929	48.15
692.115	48.22
692.3	48.19
692.486	48.3
692.672	48.29
692.858	48.31
693.044	48.31
693.23	48.34
693.415	48.38
693.601	48.37
693.787	48.33
693.973	48.33
694.158	48.31
694.344	48.35
694.53	48.27
694.715	48.31
694.901	48.33
695.087	48.39
695.272	48.43
695.458	48.42
695.644	48.44
695.829	48.47
696.015	48.48
696.2	48.57
696.386	48.58
696.571	48.6
696.757	48.66
696.943	48.66
697.128	48.61
697.313	48.55
697.499	48.6
697.684	48.62
697.87	48.61
698.055	48.57
698.241	48.53
698.426	48.51
698.611	48.56
698.797	48.54
698.982	48.53
699.167	48.55
699.353	48.59
699.538	48.57
699.723	48.61
699.909	48.65
700.094	48.73
700.279	48.76
700.464	48.86
700.649	48.89
700.835	48.91
701.02	49.01
701.205	49.08
701.39	49.14
701.575	49.23
701.76	49.18
701.945	49.3
702.13	49.28
702.316	49.35
702.501	49.31
702.686	49.31
702.871	49.37
703.056	49.41
703.241	49.45
703.426	49.46
703.611	49.53
703.796	49.65
703.98	49.58
704.165	49.63
704.35	49.73
704.535	49.73
704.72	49.73
704.905	49.7
705.09	49.67
705.275	49.69
705.459	49.7
705.644	49.67
705.829	49.63
706.014	49.76
706.198	49.85
706.383	49.83
706.568	49.94
706.753	49.99
706.937	50.01
707.122	50.02
707.307	50.04
707.491	50.04
707.676	50.02
707.86	50.05
708.045	50.05
708.23	50.04
708.414	50.07
708.599	50.05
708.783	50.03
708.968	50.16
709.152	50.23
709.337	50.25
709.521	50.32
709.706	50.41
709.89	50.45
710.075	50.36
710.259	50.4
710.443	50.38
710.628	50.47
710.812	50.58
710.997	50.54
711.181	50.61
711.365	50.61
711.55	50.66
711.734	50.67
711.918	50.69
712.102	50.78
712.287	50.83
712.471	50.85
712.655	50.81
712.839	50.72
713.023	50.72
713.208	50.72
713.392	50.7
713.576	50.72
713.76	50.69
713.944	50.64
714.128	50.66
714.312	50.65
714.496	50.64
714.68	50.57
714.864	50.65
715.048	50.67
715.232	50.66
715.416	50.74
715.6	50.67
715.784	50.66
715.968	50.69
716.152	50.65
716.336	50.73
716.52	50.79
716.704	50.85
716.888	50.87
717.072	50.95
717.256	50.92
717.439	50.93
717.623	51
717.807	51.06
717.991	51.16
718.174	51.28
718.358	51.2
718.542	51.28
718.726	51.39
718.909	51.4
719.093	51.43
719.277	51.44
719.46	51.49
719.644	51.49
719.828	51.54
720.011	51.51
720.195	51.46
720.378	51.43
720.562	51.44
720.746	51.52
720.929	51.53
721.113	51.59
721.296	51.7
721.48	51.68
721.663	51.72
721.846	51.74
722.03	51.82
722.213	51.87
722.397	51.96
722.58	51.95
722.764	51.92
722.947	52.01
723.13	51.98
723.314	52.02
723.497	52.05
723.68	52.07
723.863	52.1
724.047	52.15
724.23	52.16
724.413	52.18
724.596	52.2
724.78	52.18
724.963	52.19
725.146	52.17
725.329	52.1
725.512	52.18
725.695	52.19
725.879	52.26
726.062	52.18
726.245	52.22
726.428	52.33
726.611	52.32
726.794	52.34
726.977	52.35
727.16	52.37
727.343	52.41
727.526	52.5
727.709	52.5
727.892	52.47
728.075	52.56
728.258	52.59
728.441	52.53
728.624	52.52
728.806	52.46
728.989	52.48
729.172	52.54
729.355	52.6
729.538	52.52
729.721	52.56
729.903	52.64
730.086	52.61
730.269	52.54
730.452	52.61
730.634	52.65
730.817	52.76
731	52.81
731.182	52.79
731.365	52.73
731.548	52.73
731.73	52.75
731.913	52.71
732.095	52.68
732.278	52.76
732.461	52.81
732.643	52.87
732.826	52.83
733.008	52.87
733.191	52.88
733.373	52.95
733.556	53.01
733.738	53.04
733.921	53
734.103	53.09
734.285	53.11
734.468	53
734.65	53
734.833	53.02
735.015	52.98
735.197	53
735.38	53.05
735.562	53.05
735.744	53.08
735.926	53.16
736.109	53.16
736.291	53.22
736.473	53.36
736.655	53.3
736.838	53.43
737.02	53.43
737.202	53.48
737.384	53.46
737.566	53.44
737.748	53.51
737.93	53.57
738.113	53.47
738.295	53.45
738.477	53.43
738.659	53.53
738.841	53.49
739.023	53.44
739.205	53.44
739.387	53.42
739.569	53.38
739.751	53.3
739.933	53.27
740.114	53.34
740.296	53.47
740.478	53.5
740.66	53.52
740.842	53.54
741.024	53.64
741.206	53.67
741.387	53.83
741.569	53.95
741.751	53.93
741.933	53.98
742.115	54.08
742.296	54.01
742.478	54.02
742.66	54.11
742.841	54.05
743.023	54.1
743.205	54.1
743.386	53.98
743.568	54.01
743.75	54.13
743.931	54.16
744.113	54.1
744.294	54.19
744.476	54.2
744.657	54.11
744.839	54.26
745.02	54.17
745.202	54.28
745.383	54.33
745.565	54.36
745.746	54.31
745.928	54.28
746.109	54.39
746.291	54.36
746.472	54.5
746.653	54.57
746.835	54.61
747.016	54.67
747.197	54.65
747.379	54.73
747.56	54.78
747.741	54.77
747.922	54.78
748.104	54.78
748.285	54.75
748.466	54.65
748.647	54.64
748.828	54.65
749.01	54.76
749.191	54.79
749.372	54.73
749.553	54.77
749.734	54.84
749.915	55.03
750.096	55.08
750.277	55.12
750.458	55.21
750.639	55.3
750.82	55.31
751.001	55.26
751.182	55.34
751.363	55.45
751.544	55.45
751.725	55.55
751.906	55.47
752.087	55.56
752.268	55.66
752.449	55.54
752.63	55.43
752.81	55.44
752.991	55.44
753.172	55.47
753.353	55.42
753.534	55.35
753.714	55.35
753.895	55.37
754.076	55.37
754.256	55.32
754.437	55.46
754.618	55.56
754.798	55.52
754.979	55.61
755.16	55.44
755.34	55.55
755.521	55.65
755.702	55.6
755.882	55.58
756.063	55.58
756.243	55.56
756.424	55.63
756.604	55.57
756.785	55.6
756.965	55.6
757.146	55.77
757.326	55.71
757.507	55.66
757.687	55.79
757.867	55.86
758.048	55.87
758.228	55.94
758.408	55.87
758.589	55.96
758.769	55.95
758.949	55.78
759.13	55.83
759.31	55.83
759.49	55.8
759.671	55.76
759.851	55.71
760.031	55.66
760.211	55.61
760.391	55.61
760.572	55.64
760.752	55.78
760.932	55.91
761.112	55.86
761.292	55.98
761.472	56.16
761.652	56.15
761.832	56.26
762.012	56.23
762.192	56.22
762.372	56.15
762.552	56.07
762.732	55.97
762.912	56.04
763.092	55.97
763.272	55.86
763.452	55.79
763.632	55.8
763.812	55.71
763.992	55.7
764.172	55.79
764.351	55.87
764.531	55.9
764.711	55.93
764.891	55.93
765.071	56.01
765.25	56.17
765.43	56.17
765.61	56.19
765.79	56.27
765.969	56.34
766.149	56.27
766.329	56.28
766.508	56.38
766.688	56.42
766.867	56.47
767.047	56.61
767.227	56.54
767.406	56.59
767.586	56.59
767.765	56.63
767.945	56.8
768.124	56.96
768.304	56.97
768.483	56.86
768.663	56.83
768.842	56.83
769.022	56.71
769.201	56.78
769.38	56.89
769.56	56.89
769.739	56.87
769.919	56.66
770.098	56.69
770.277	56.67
770.457	56.75
770.636	56.83
770.815	56.79
770.994	56.91
771.174	56.84
771.353	56.77
771.532	56.83
771.711	56.86
771.89	56.98
772.07	56.92
772.249	57.08
772.428	57.25
772.607	57.37
772.786	57.49
772.965	57.39
773.144	57.35
773.323	57.24
773.502	57.23
773.681	57.31
773.86	57.29
774.039	57.37
774.218	57.37
774.397	57.12
774.576	57.14
774.755	57.16
774.934	57.32
775.113	57.42
775.292	57.61
775.471	57.62
775.65	57.61
775.828	57.62
776.007	57.58
776.186	57.52
776.365	57.62
776.544	57.46
776.722	57.53
776.901	57.31
777.08	57.3
777.258	57.38
777.437	57.42
777.616	57.42
777.795	57.48
777.973	57.54
778.152	57.55
778.33	57.62
778.509	57.68
778.688	57.54
778.866	57.64
779.045	57.64
779.223	57.59
779.402	57.77
779.58	57.69
779.759	57.7
779.937	57.66
780.116	57.78
780.294	57.61
780.473	57.64
780.651	57.71
780.829	57.74
781.008	57.61
781.186	57.59
781.364	57.52
781.543	57.65
781.721	57.82
781.899	57.75
782.078	57.67
782.256	57.87
782.434	57.89
782.612	58.01
782.791	58
782.969	58.21
783.147	58.21
783.325	58.29
783.503	58.27
783.681	58.16
783.86	58.4
784.038	58.39
784.216	58.34
784.394	58.3
784.572	58.16
784.75	58.14
784.928	58.22
785.106	58.16
785.284	58
785.462	57.96
785.64	57.93
785.818	57.86
785.996	57.89
786.174	57.99
786.352	58.07
786.53	58.04
786.707	58.05
786.885	57.97
787.063	58.01
787.241	58.19
787.419	58.2
787.597	58.36
787.774	58.3
787.952	58.3
788.13	58.19
788.308	58.23
788.485	58.19
788.663	58.27
788.841	58.36
789.018	58.44
789.196	58.41
789.374	58.53
789.551	58.44
789.729	58.53
789.906	58.6
790.084	58.76
790.262	58.71
790.439	58.87
790.617	58.86
790.794	58.69
790.972	58.67
791.149	58.63
791.327	58.57
791.504	58.55
791.681	58.51
791.859	58.57
792.036	58.52
792.214	58.65
792.391	58.62
792.568	58.63
792.746	58.75
792.923	58.87
793.1	58.93
793.278	58.9
793.455	58.91
793.632	59.04
793.809	58.91
793.987	58.88
794.164	58.77
794.341	58.89
794.518	59.09
794.695	59.05
794.872	58.91
795.05	58.91
795.227	59.13
795.404	59.2
795.581	59.03
795.758	58.98
795.935	59.02
796.112	59.1
796.289	58.98
796.466	58.72
796.643	58.75
796.82	58.91
796.997	58.93
797.174	58.75
797.351	58.74
797.528	58.85
797.704	59
797.881	59.02
798.058	59.02
798.235	59.06
798.412	59.16
798.589	59.22
798.765	59.1
798.942	59.09
799.119	59.2
799.296	59.13
799.472	59.23
799.649	59.23
799.826	59.24
800.003	59.15
800.179	59.18
800.356	59.13
800.533	59.17
800.709	59.19
800.886	59.18
801.062	59.25
801.239	59.43
801.415	59.41
801.592	59.37
801.769	59.45
801.945	59.6
802.122	59.66
802.298	59.79
802.474	59.84
802.651	59.9
802.827	60.14
803.004	60.01
803.18	59.85
803.356	59.82
803.533	59.8
803.709	59.92
803.886	59.87
804.062	59.92
804.238	60
804.414	59.89
804.591	59.94
804.767	59.78
804.943	59.97
805.119	60.22
805.296	60.19
805.472	60.31
805.648	60.13
805.824	60.09
806	60.05
806.176	59.87
806.352	60.07
806.529	60.16
806.705	60.21
806.881	60.27
807.057	60.19
807.233	60.36
807.409	60.33
807.585	60.35
807.761	60.53
807.937	60.43
808.113	60.65
808.289	60.7
808.464	60.78
808.64	60.62
808.816	60.56
808.992	60.57
809.168	60.33
809.344	60.33
809.52	60.38
809.695	60.42
809.871	60.47
810.047	60.43
810.223	60.29
810.398	60.12
810.574	60.35
810.75	60.32
810.926	60.39
811.101	60.49
811.277	60.59
811.453	60.6
811.628	60.75
811.804	61.12
811.979	60.92
812.155	60.9
812.331	60.71
812.506	60.71
812.682	60.75
812.857	60.67
813.033	60.72
813.208	60.79
813.384	60.91
813.559	60.72
813.734	60.51
813.91	60.78
814.085	60.97
814.261	61.33
814.436	61.28
814.611	61.13
814.787	61.26
814.962	61.38
815.137	61.24
815.313	61.15
815.488	61.12
815.663	61.19
815.838	61.25
816.014	61.04
816.189	60.97
816.364	61.06
816.539	61.34
816.714	61.2
816.89	61.07
817.065	61.24
817.24	61.37
817.415	61.38
817.59	61.16
817.765	61.02
817.94	61.12
818.115	61.16
818.29	61.12
818.465	61.01
818.64	61.24
818.815	61.12
818.99	60.97
819.165	60.82
819.34	60.78
819.515	60.72
819.69	60.68
819.865	60.62
820.039	60.54
820.214	60.38
820.389	60.28
820.564	60.11
820.739	60.21
820.913	60.3
821.088	60.3
821.263	60.19
821.438	60.06
821.612	59.93
821.787	59.73
821.962	59.53
822.136	59.36
822.311	59.2
822.486	59.09
822.66	59.04
822.835	58.98
823.009	59
823.184	59.12
823.359	59.22
823.533	59.32
823.708	59.45
823.882	59.6
824.057	59.77
824.231	59.97
824.405	60.23
824.58	60.49
824.754	60.77
824.929	60.99
825.103	61.1
825.277	61.23
825.452	61.35
825.626	61.43
825.801	61.45
825.975	61.58
826.149	61.65
826.323	61.62
826.498	61.49
826.672	61.35
826.846	61.18
827.02	60.97
827.195	60.84
827.369	60.65
827.543	60.54
827.717	60.5
827.891	60.5
828.065	60.47
828.239	60.52
828.413	60.55
828.587	60.62
828.762	60.76
828.936	60.93
829.11	61.13
829.284	61.3
829.458	61.47
829.632	61.71
829.805	61.7
829.979	61.84
830.153	61.87
830.327	61.97
830.501	62.1
830.675	62.11
830.849	62.18
831.023	62.11
831.196	62.17
831.37	62.11
831.544	61.98
831.718	62.09
831.892	62.02
832.065	61.81
832.239	61.84
832.413	61.72
832.586	61.43
832.76	61.54
832.934	61.45
833.107	61.3
833.281	61.19
833.455	61.09
833.628	60.91
833.802	60.75
833.975	60.71
834.149	60.67
834.322	60.67
834.496	60.74
834.67	60.74
834.843	60.77
835.016	60.93
835.19	61.04
835.363	61.16
835.537	61.3
835.71	61.48
835.884	61.7
836.057	62.01
836.23	62.22
836.404	62.54
836.577	62.64
836.75	62.98
836.923	63.13
837.097	63.28
837.27	63.47
837.443	63.69
837.616	63.74
837.79	63.85
837.963	63.5
838.136	63.4
838.309	63.21
838.482	63.43
838.655	63.29
838.829	63.27
839.002	63.53
839.175	63.35
839.348	63.3
839.521	63.51
839.694	63.44
839.867	63.36
840.04	63.47
840.213	63.4
840.386	63.28
840.559	63.28
840.732	63.01
840.905	62.98
841.077	63.02
841.25	62.99
841.423	63
841.596	62.88
841.769	63.01
841.942	63.07
842.114	63.24
842.287	63.08
842.46	63
842.633	63.13
842.806	63.15
842.978	63.26
843.151	63.36
843.324	63.41
843.496	63.75
843.669	64.04
843.842	64.12
844.014	64.1
844.187	64.45
844.359	64.74
844.532	65
844.704	64.96
844.877	64.63
845.05	65.17
845.222	65.4
845.395	65.48
845.567	65.41
845.739	65.23
845.912	65.4
846.084	65.53
846.257	65.4
846.429	65.54
846.601	65.28
846.774	65.77
846.946	65.53
847.119	65.47
847.291	65.5
847.463	65.15
847.635	65.12
847.808	65.34
847.98	65.49
848.152	65.77
848.324	66.21
848.497	66.54
848.669	66.68
848.841	66.73
849.013	66.26
849.185	66.1
849.357	66.6
849.529	67.02
849.701	66.88
849.873	66.48
850.046	66.12
850.218	65.5
850.39	65.66
850.562	65.66
850.734	65.51
850.906	65.66
851.077	65.49
851.249	65.7
851.421	65.91
851.593	65.72
851.765	65.96
851.937	66.14
852.109	66.07
852.281	66
852.452	66.03
852.624	66.02
852.796	66.19
852.968	66.62
853.14	66.69
853.311	66.28
853.483	66.23
853.655	66.04
853.826	66.48
853.998	66.71
854.17	66.7
854.341	66.32
854.513	66.6
854.685	67.06
854.856	67.07
855.028	66.81
855.199	66.71
855.371	66.9
855.542	66.95
855.714	67.1
855.885	67.75
856.057	67.91
856.228	67.91
856.4	67.81
856.571	67.65
856.743	67.28
856.914	67.36
857.085	67.42
857.257	67.81
857.428	67.56
857.599	66.91
857.771	66.58
857.942	66.41
858.113	66.89
858.284	66.67
858.456	66.25
858.627	66.24
858.798	66.15
858.969	66.54
859.141	66.39
859.312	66.93
859.483	67.08
859.654	66.71
859.825	66.43
859.996	66.7
860.167	66.9
860.338	67.46
860.509	67.71
860.68	67.9
860.851	67.83
861.022	68.46
861.193	68.49
861.364	68
861.535	68.69
861.706	69.34
861.877	69.47
862.048	69.16
862.219	68.98
862.39	69.21
862.561	68.76
862.731	68.53
862.902	67.78
863.073	67.38
863.244	68.09
863.415	67.33
863.585	67.5
863.756	66.95
863.927	67.22
864.097	67.67
864.268	67.4
864.439	67.63
864.609	67.83
864.78	67.82
864.951	67.72
865.121	67.58
865.292	67.41
865.463	67.46
865.633	67.61
865.804	67.91
865.974	67.52
866.145	67.63
866.315	68.12
866.486	68.37
866.656	68.48
866.826	69.23
866.997	69.66
867.167	70.23
867.338	70.43
867.508	69.73
867.678	69.87
867.849	70.04
868.019	70.11
868.189	69.75
868.36	70.14
868.53	70.51
868.7	70.13
868.87	69.36
869.041	69.96
869.211	69.48
869.381	70.6
869.551	70.19
869.721	69.87
869.891	69.93
870.062	69.99
870.232	69.56
870.402	69.03
870.572	68.52
870.742	69.27
870.912	68.39
871.082	68.2
871.252	68.03
871.422	67.52
871.592	67.89
871.762	68.45
871.932	68.79
872.102	68.82
872.272	69.03
872.442	69.82
872.611	69.42
872.781	69.65
872.951	69.28
873.121	69.22
873.291	69.55
873.461	69.75
873.63	69.32
873.8	69.6
873.97	69.83
874.14	69.93
874.309	68.91
874.479	68.71
874.649	69
874.818	69.82
874.988	69.48
875.158	69.86
875.327	69.58
875.497	69.84
875.666	70.01
875.836	69.91
876.005	70.16
876.175	70.98
876.344	71.32
876.514	71.16
876.683	71.04
876.853	71.37
877.022	71.05
877.192	71.28
877.361	71.45
877.531	71.22
877.7	71.21
877.869	71.31
878.039	71.9
878.208	72.29
878.377	72.03
878.547	72.04
878.716	71.3
878.885	71.35
879.054	71.12
879.224	70.48
879.393	69.91
879.562	69.42
879.731	68.84
879.9	68.59
880.069	68.37
880.239	68.5
880.408	67.99
880.577	68.15
880.746	68.06
880.915	68.08
881.084	67.51
881.253	67.01
881.422	66.35
881.591	65.75
881.76	65.02
881.929	64.42
882.098	63.98
882.267	63.71
882.436	63.64
882.605	63.6
882.773	63.48
882.942	63.55
883.111	63.6
883.28	63.79
883.449	63.88
883.618	64
883.786	64.23
883.955	64.4
884.124	64.58
884.293	64.79
884.461	64.89
884.63	65.05
884.799	65.33
884.967	65.64
885.136	65.73
885.305	66.01
885.473	66.32
885.642	66.42
885.81	66.88
885.979	66.94
886.148	67.03
886.316	67.36
886.485	67.66
886.653	67.49
886.822	67.56
886.99	67.92
887.158	68.21
887.327	68.45
887.495	68.58
887.664	68.19
887.832	68.87
888	68.76
888.169	68.69
888.337	68.62
888.505	68.89
888.674	68.69
888.842	68.62
889.01	68.42
889.178	68.04
889.347	68.08
889.515	68.1
889.683	68.11
889.851	68.39
