Data from Bird_3_Reflection_2.txt Node
Date: Fri Jan 31 09:39:32 MST 2020
User: Lab User
Spectrometer: USB4J01344
Trigger mode: 0
Integration Time (sec): 1.047400E-1
Scans to average: 20
Electric dark correction enabled: false
Nonlinearity correction enabled: false
Boxcar width: 5
XAxis mode: Wavelengths
Number of Pixels in Spectrum: 3648
>>>>>Begin Spectral Data<<<<<
177.498	-191.79
177.717	-199.4
177.936	-286.81
178.155	-257.28
178.374	-299.86
178.593	-374.1
178.812	-741.56
179.031	-1146.4
179.251	-1269.53
179.47	-1888.33
179.689	-2116.67
179.908	10880
180.127	497.77
180.346	341.73
180.565	240.05
180.784	191.57
181.003	155.27
181.222	143.18
181.441	125.86
181.66	113.96
181.879	102.24
182.098	96.58
182.316	91.57
182.535	95.87
182.754	95.61
182.973	92.51
183.192	93.05
183.411	91.52
183.63	89.05
183.849	91.07
184.067	89.12
184.286	90.76
184.505	91.13
184.724	92.9
184.943	88.8
185.161	88.94
185.38	94.16
185.599	95.42
185.818	97.64
186.036	102.84
186.255	100.59
186.474	100.99
186.693	102.01
186.911	103.37
187.13	107.14
187.349	108.68
187.567	106.06
187.786	103.16
188.004	103.32
188.223	109.93
188.442	107.7
188.66	110.49
188.879	109.45
189.097	108.89
189.316	106.14
189.535	101.93
189.753	104.41
189.972	104.26
190.19	106.53
190.409	106.81
190.627	101.11
190.846	97.38
191.064	99.94
191.283	98.07
191.501	100.77
191.719	108.01
191.938	107.67
192.156	102.2
192.375	107.14
192.593	105.35
192.811	107.34
193.03	105.83
193.248	109.28
193.467	103.82
193.685	107.51
193.903	101.54
194.121	98.29
194.34	98.65
194.558	99.88
194.776	97.71
194.995	97.47
195.213	96.83
195.431	95.71
195.649	92.91
195.868	90.27
196.086	88.23
196.304	89.33
196.522	88.43
196.74	86.85
196.958	85.82
197.177	86.48
197.395	82.4
197.613	82.8
197.831	82.53
198.049	84.2
198.267	91.21
198.485	90.79
198.703	92.15
198.921	92
199.139	96.87
199.358	97.95
199.576	95.67
199.794	98.41
200.012	97.15
200.23	99.54
200.448	95.03
200.666	91.73
200.883	92.19
201.101	93.24
201.319	96.79
201.537	91.69
201.755	93.46
201.973	92.63
202.191	92.53
202.409	93.77
202.627	92.4
202.845	98.89
203.062	100.75
203.28	98.27
203.498	95.72
203.716	90.92
203.934	92.24
204.151	89.69
204.369	88.27
204.587	83.95
204.805	84.07
205.022	84.29
205.24	78.66
205.458	75.32
205.676	77.5
205.893	80.07
206.111	79.33
206.329	77.54
206.546	76.24
206.764	77.35
206.982	79.62
207.199	82.31
207.417	77.97
207.634	78.8
207.852	76.11
208.07	75.98
208.287	74.1
208.505	75.75
208.722	75.48
208.94	79.02
209.157	82.85
209.375	79.66
209.592	76.01
209.81	82.8
210.027	82.57
210.245	85.13
210.462	84.14
210.68	86.57
210.897	85.29
211.115	84.4
211.332	79.18
211.549	74.03
211.767	81
211.984	79.11
212.201	70.43
212.419	71.11
212.636	70.79
212.854	69.82
213.071	70.48
213.288	70.16
213.505	70.72
213.723	72.09
213.94	77.97
214.157	73.2
214.374	71.85
214.592	75.18
214.809	74.94
215.026	74.65
215.243	76.11
215.461	72.73
215.678	74.89
215.895	75.89
216.112	78.6
216.329	75.31
216.546	78.79
216.763	79.47
216.981	82.05
217.198	82.24
217.415	83.43
217.632	86.24
217.849	90.46
218.066	90.29
218.283	86.16
218.5	80.17
218.717	77.98
218.934	78.41
219.151	78.71
219.368	76.84
219.585	74.74
219.802	73.57
220.019	69.59
220.236	68.04
220.453	67.05
220.67	69.77
220.887	72.74
221.103	71.9
221.32	69.75
221.537	72.84
221.754	74.88
221.971	77.81
222.188	76.45
222.405	76.6
222.621	74.3
222.838	74.33
223.055	71.55
223.272	69.23
223.488	69
223.705	67.07
223.922	64.73
224.139	65.31
224.355	63.6
224.572	65.77
224.789	66.33
225.005	64.38
225.222	63.21
225.439	63.43
225.655	65.78
225.872	65.99
226.089	66.28
226.305	64.48
226.522	60.71
226.738	58.2
226.955	52.51
227.172	48.76
227.388	45.52
227.605	43.18
227.821	40.31
228.038	36.35
228.254	35.27
228.471	34.23
228.687	33.27
228.904	32.48
229.12	32.02
229.337	32.82
229.553	33.6
229.77	32.81
229.986	33.09
230.202	33.71
230.419	35.88
230.635	36.36
230.851	36
231.068	36.5
231.284	36.07
231.501	36.6
231.717	35.72
231.933	35.29
232.149	36.51
232.366	36.79
232.582	35.95
232.798	34.88
233.015	33.03
233.231	31.75
233.447	32.39
233.663	31.63
233.879	30.85
234.096	31.58
234.312	31.82
234.528	31.04
234.744	29.43
234.96	29.59
235.176	29.5
235.393	29.02
235.609	28.89
235.825	27.07
236.041	27.47
236.257	26.94
236.473	26.13
236.689	26.05
236.905	25.61
237.121	25.84
237.337	25.12
237.553	24.95
237.769	25.22
237.985	25.48
238.201	25.67
238.417	25.2
238.633	25.09
238.849	24.22
239.065	22.85
239.281	22.32
239.497	21.56
239.713	21.16
239.928	20.25
240.144	19.16
240.36	18.76
240.576	17.83
240.792	17.22
241.008	16.76
241.223	16.49
241.439	15.97
241.655	15.64
241.871	15.43
242.087	15.34
242.302	15.3
242.518	15.42
242.734	15.19
242.95	15.33
243.165	15.38
243.381	15.4
243.597	15.34
243.812	15.74
244.028	16.3
244.244	16.49
244.459	16.48
244.675	16.3
244.89	16.27
245.106	16.02
245.322	15.5
245.537	14.99
245.753	14.57
245.968	14.13
246.184	13.71
246.399	13.33
246.615	13.14
246.83	13.04
247.046	12.98
247.261	12.85
247.477	12.79
247.692	12.79
247.908	12.74
248.123	12.7
248.339	12.77
248.554	12.9
248.769	13.2
248.985	13.39
249.2	13.49
249.416	13.67
249.631	13.86
249.846	14.01
250.062	14.15
250.277	14.31
250.492	14.48
250.707	14.61
250.923	14.26
251.138	13.79
251.353	13.63
251.569	13.46
251.784	13.4
251.999	13.32
252.214	13.45
252.429	13.4
252.645	13.51
252.86	13.68
253.075	13.8
253.29	14.1
253.505	14.2
253.72	14.38
253.935	14.46
254.151	14.71
254.366	14.95
254.581	14.97
254.796	15.18
255.011	15.07
255.226	14.79
255.441	14.77
255.656	14.48
255.871	14.65
256.086	14.54
256.301	14.69
256.516	14.51
256.731	14.44
256.946	14.16
257.161	14.03
257.376	13.76
257.591	13.75
257.806	13.4
258.02	13.41
258.235	13.11
258.45	12.79
258.665	12.53
258.88	12.35
259.095	12.06
259.31	11.89
259.524	11.8
259.739	11.84
259.954	11.73
260.169	11.74
260.383	11.76
260.598	11.78
260.813	11.85
261.028	11.89
261.242	11.91
261.457	12.1
261.672	12.39
261.886	12.48
262.101	12.66
262.316	12.61
262.53	12.67
262.745	12.54
262.96	12.66
263.174	12.65
263.389	12.75
263.603	12.85
263.818	12.84
264.033	12.64
264.247	12.81
264.462	12.63
264.676	12.81
264.891	13.05
265.105	13.03
265.32	12.92
265.534	12.82
265.749	12.77
265.963	12.66
266.178	12.59
266.392	12.64
266.606	12.51
266.821	12.49
267.035	12.5
267.25	12.26
267.464	12.16
267.678	12.22
267.893	12.2
268.107	12.13
268.321	12.19
268.536	12.22
268.75	12.19
268.964	12.2
269.179	12.21
269.393	12.29
269.607	12.34
269.821	12.37
270.036	12.1
270.25	12.08
270.464	12
270.678	11.83
270.892	11.7
271.106	11.65
271.321	11.58
271.535	11.59
271.749	11.41
271.963	11.36
272.177	11.32
272.391	11.36
272.605	11.31
272.819	11.37
273.033	11.43
273.248	11.53
273.462	11.52
273.676	11.59
273.89	11.52
274.104	11.58
274.318	11.63
274.532	11.76
274.746	11.79
274.96	11.82
275.173	11.8
275.387	11.77
275.601	11.8
275.815	11.93
276.029	11.85
276.243	12
276.457	12.12
276.671	12.1
276.885	12.02
277.098	12.06
277.312	12.06
277.526	12.06
277.74	12.07
277.954	11.95
278.167	11.84
278.381	11.99
278.595	11.95
278.809	11.97
279.022	12.01
279.236	11.95
279.45	11.9
279.663	11.97
279.877	11.9
280.091	11.91
280.304	11.92
280.518	11.86
280.732	11.69
280.945	11.58
281.159	11.52
281.373	11.39
281.586	11.39
281.8	11.39
282.013	11.34
282.227	11.34
282.44	11.29
282.654	11.26
282.867	11.3
283.081	11.35
283.294	11.33
283.508	11.3
283.721	11.28
283.935	11.34
284.148	11.23
284.362	11.21
284.575	11.21
284.789	11.19
285.002	11.14
285.215	11.15
285.429	11.08
285.642	11.01
285.855	10.96
286.069	10.97
286.282	10.97
286.495	11.02
286.709	10.98
286.922	10.99
287.135	10.97
287.348	10.99
287.562	10.97
287.775	11
287.988	11.07
288.201	11.07
288.415	11.08
288.628	11.03
288.841	10.97
289.054	11.03
289.267	10.97
289.48	10.94
289.694	10.92
289.907	10.88
290.12	10.88
290.333	10.87
290.546	10.92
290.759	10.9
290.972	10.9
291.185	10.95
291.398	10.88
291.611	10.94
291.824	11.04
292.037	11.06
292.25	11.13
292.463	11.19
292.676	11.21
292.889	11.19
293.102	11.25
293.315	11.21
293.528	11.23
293.741	11.27
293.954	11.2
294.166	11.14
294.379	11.17
294.592	11.21
294.805	11.19
295.018	11.19
295.231	11.19
295.443	11.11
295.656	11.13
295.869	11.12
296.082	11.07
296.295	11.08
296.507	11.04
296.72	10.99
296.933	10.88
297.145	10.83
297.358	10.79
297.571	10.8
297.783	10.81
297.996	10.79
298.209	10.75
298.421	10.78
298.634	10.75
298.847	10.79
299.059	10.88
299.272	10.93
299.484	10.98
299.697	11.06
299.91	11.04
300.122	11.08
300.335	11.12
300.547	11.19
300.76	11.25
300.972	11.25
301.185	11.23
301.397	11.17
301.609	11.24
301.822	11.24
302.034	11.23
302.247	11.34
302.459	11.37
302.672	11.36
302.884	11.41
303.096	11.4
303.309	11.44
303.521	11.47
303.733	11.54
303.946	11.52
304.158	11.54
304.37	11.56
304.583	11.53
304.795	11.52
305.007	11.56
305.219	11.61
305.432	11.61
305.644	11.69
305.856	11.75
306.068	11.72
306.28	11.75
306.493	11.81
306.705	11.81
306.917	11.83
307.129	11.92
307.341	11.88
307.553	11.78
307.765	11.77
307.977	11.74
308.189	11.69
308.402	11.65
308.614	11.66
308.826	11.64
309.038	11.66
309.25	11.62
309.462	11.52
309.674	11.57
309.886	11.56
310.098	11.54
310.31	11.53
310.522	11.56
310.733	11.59
310.945	11.58
311.157	11.61
311.369	11.59
311.581	11.63
311.793	11.7
312.005	11.72
312.217	11.7
312.428	11.75
312.64	11.77
312.852	11.83
313.064	11.84
313.276	11.89
313.487	11.94
313.699	11.99
313.911	11.96
314.123	11.94
314.334	12
314.546	12.12
314.758	12.14
314.97	12.18
315.181	12.15
315.393	12.24
315.604	12.35
315.816	12.38
316.028	12.41
316.239	12.45
316.451	12.49
316.663	12.43
316.874	12.47
317.086	12.46
317.297	12.43
317.509	12.37
317.72	12.4
317.932	12.34
318.143	12.34
318.355	12.31
318.566	12.32
318.778	12.28
318.989	12.35
319.201	12.34
319.412	12.34
319.624	12.46
319.835	12.56
320.046	12.56
320.258	12.52
320.469	12.57
320.68	12.65
320.892	12.61
321.103	12.73
321.314	12.71
321.526	12.74
321.737	12.84
321.948	12.81
322.16	12.83
322.371	12.84
322.582	12.79
322.793	12.78
323.005	12.77
323.216	12.78
323.427	12.69
323.638	12.66
323.849	12.58
324.06	12.52
324.272	12.41
324.483	12.37
324.694	12.25
324.905	12.35
325.116	12.25
325.327	12.2
325.538	12.21
325.749	12.21
325.96	12.24
326.171	12.29
326.382	12.38
326.593	12.47
326.804	12.5
327.015	12.62
327.226	12.63
327.437	12.65
327.648	12.65
327.859	12.73
328.07	12.82
328.281	12.86
328.492	12.88
328.703	12.87
328.914	12.86
329.125	12.88
329.335	12.93
329.546	12.92
329.757	13
329.968	13.02
330.179	12.99
330.39	13.01
330.6	12.97
330.811	12.89
331.022	12.87
331.233	12.87
331.443	12.92
331.654	12.87
331.865	12.85
332.075	12.84
332.286	12.83
332.497	12.8
332.707	12.76
332.918	12.78
333.129	12.87
333.339	12.91
333.55	12.89
333.761	12.85
333.971	12.85
334.182	12.87
334.392	12.87
334.603	12.85
334.813	12.84
335.024	12.87
335.234	12.87
335.445	12.84
335.655	12.8
335.866	12.81
336.076	12.83
336.287	12.87
336.497	12.87
336.708	12.88
336.918	12.87
337.128	12.97
337.339	12.93
337.549	12.94
337.759	12.97
337.97	12.95
338.18	12.97
338.39	12.95
338.601	13
338.811	12.95
339.021	12.92
339.232	13
339.442	12.97
339.652	13.05
339.862	13.06
340.073	13.07
340.283	13.11
340.493	13.09
340.703	13.1
340.913	12.99
341.124	13.04
341.334	13.03
341.544	13.06
341.754	13.03
341.964	13.01
342.174	13.01
342.384	13.04
342.594	13.07
342.804	13.16
343.014	13.19
343.224	13.2
343.435	13.28
343.645	13.24
343.855	13.23
344.065	13.23
344.274	13.24
344.484	13.25
344.694	13.22
344.904	13.14
345.114	13.09
345.324	13.01
345.534	13.01
345.744	12.93
345.954	12.98
346.164	12.91
346.374	12.9
346.583	12.86
346.793	12.89
347.003	12.91
347.213	12.94
347.423	12.97
347.632	13
347.842	13.05
348.052	13.09
348.262	13.15
348.471	13.15
348.681	13.16
348.891	13.17
349.1	13.15
349.31	13.15
349.52	13.2
349.729	13.24
349.939	13.25
350.149	13.26
350.358	13.24
350.568	13.17
350.778	13.2
350.987	13.22
351.197	13.22
351.406	11.01
351.616	11
351.825	10.98
352.035	10.89
352.244	10.89
352.454	10.89
352.663	10.94
352.873	10.98
353.082	11.02
353.292	11.09
353.501	11.16
353.711	13.34
353.92	13.33
354.129	13.27
354.339	13.29
354.548	13.28
354.757	13.29
354.967	13.22
355.176	13.24
355.385	13.23
355.595	13.14
355.804	13.05
356.013	12.98
356.223	12.94
356.432	12.95
356.641	13
356.85	13.01
357.059	13
357.269	13
357.478	13
357.687	13.03
357.896	13.16
358.105	13.19
358.314	13.31
358.524	13.37
358.733	13.4
358.942	13.37
359.151	13.36
359.36	13.4
359.569	13.42
359.778	13.44
359.987	13.37
360.196	13.27
360.405	13.29
360.614	13.2
360.823	13.13
361.032	13.13
361.241	13.12
361.45	13.14
361.659	13.11
361.868	13.12
362.077	13.11
362.286	13.19
362.495	13.22
362.704	13.23
362.912	13.25
363.121	13.27
363.33	13.27
363.539	13.28
363.748	13.33
363.957	13.33
364.165	13.38
364.374	13.41
364.583	13.38
364.792	13.4
365	13.37
365.209	13.4
365.418	13.43
365.626	13.47
365.835	13.5
366.044	13.5
366.253	13.59
366.461	13.57
366.67	13.58
366.878	13.6
367.087	13.59
367.296	13.64
367.504	13.64
367.713	13.69
367.921	13.72
368.13	13.73
368.338	13.69
368.547	13.62
368.755	13.62
368.964	13.64
369.172	13.65
369.381	13.68
369.589	13.68
369.798	13.69
370.006	13.73
370.215	13.7
370.423	13.67
370.632	13.74
370.84	13.76
371.048	13.79
371.257	13.79
371.465	13.77
371.673	13.77
371.882	13.77
372.09	13.81
372.298	13.81
372.507	13.85
372.715	13.87
372.923	13.9
373.131	13.92
373.34	13.92
373.548	13.93
373.756	13.96
373.964	14
374.172	14.01
374.381	14.04
374.589	14.03
374.797	14.07
375.005	14.06
375.213	14.03
375.421	13.98
375.629	13.92
375.837	13.89
376.045	13.86
376.254	13.87
376.462	13.86
376.67	13.85
376.878	13.81
377.086	13.72
377.294	13.74
377.502	13.72
377.71	13.74
377.918	13.75
378.126	13.77
378.333	13.83
378.541	13.83
378.749	13.91
378.957	13.91
379.165	13.96
379.373	14.01
379.581	14.03
379.789	14.09
379.996	14.13
380.204	14.19
380.412	14.18
380.62	14.19
380.828	14.19
381.035	14.16
381.243	14.16
381.451	14.13
381.659	14.13
381.866	14.18
382.074	14.2
382.282	14.2
382.489	14.15
382.697	14.14
382.905	14.11
383.112	14.11
383.32	14.04
383.528	14.04
383.735	14.05
383.943	14.08
384.15	14.07
384.358	14.04
384.565	14.07
384.773	14.11
384.981	14.16
385.188	14.16
385.396	14.17
385.603	14.21
385.811	14.22
386.018	14.22
386.225	14.17
386.433	14.15
386.64	14.18
386.848	14.13
387.055	14.13
387.263	14.13
387.47	14.11
387.677	14.07
387.885	14.09
388.092	14.1
388.299	14.14
388.507	14.18
388.714	14.2
388.921	14.2
389.128	14.24
389.336	14.25
389.543	14.25
389.75	14.27
389.957	14.31
390.165	14.33
390.372	14.32
390.579	14.28
390.786	14.24
390.993	14.21
391.2	14.22
391.408	14.21
391.615	14.24
391.822	14.26
392.029	14.26
392.236	14.26
392.443	14.28
392.65	14.29
392.857	14.34
393.064	14.34
393.271	14.37
393.478	14.36
393.685	14.35
393.892	14.35
394.099	14.32
394.306	14.33
394.513	14.33
394.72	14.29
394.927	14.29
395.134	14.26
395.341	14.32
395.547	14.34
395.754	14.39
395.961	14.42
396.168	14.44
396.375	14.47
396.582	14.48
396.788	14.53
396.995	14.59
397.202	14.61
397.409	14.65
397.616	14.62
397.822	14.6
398.029	14.6
398.236	14.65
398.442	14.63
398.649	14.63
398.856	14.64
399.062	14.61
399.269	14.58
399.476	14.58
399.682	14.57
399.889	14.6
400.096	14.62
400.302	14.62
400.509	14.59
400.715	14.62
400.922	14.65
401.128	14.68
401.335	14.69
401.541	14.68
401.748	14.73
401.954	14.76
402.161	14.76
402.367	14.79
402.574	14.75
402.78	14.75
402.986	14.73
403.193	14.7
403.399	14.69
403.606	14.71
403.812	14.7
404.018	14.71
404.225	14.69
404.431	14.71
404.637	14.69
404.844	14.71
405.05	14.75
405.256	14.76
405.462	14.76
405.669	14.77
405.875	14.78
406.081	14.82
406.287	14.83
406.494	14.85
406.7	14.82
406.906	14.85
407.112	14.88
407.318	14.89
407.524	14.92
407.73	14.94
407.937	14.96
408.143	14.95
408.349	14.97
408.555	14.98
408.761	15.01
408.967	15.03
409.173	15.03
409.379	15.02
409.585	15.01
409.791	15.01
409.997	15
410.203	15.02
410.409	15.01
410.615	15
410.821	14.99
411.027	15.01
411.233	15.03
411.438	15.03
411.644	15.03
411.85	15.04
412.056	15.03
412.262	15.06
412.468	15.04
412.673	15.08
412.879	15.08
413.085	15.1
413.291	15.09
413.497	15.13
413.702	15.16
413.908	15.18
414.114	15.19
414.319	15.22
414.525	15.21
414.731	15.24
414.937	15.27
415.142	15.27
415.348	15.28
415.553	15.29
415.759	15.25
415.965	15.26
416.17	15.27
416.376	15.27
416.581	15.29
416.787	15.3
416.992	15.3
417.198	15.27
417.404	15.29
417.609	15.29
417.815	15.29
418.02	15.29
418.225	15.3
418.431	15.3
418.636	15.29
418.842	15.3
419.047	15.29
419.253	15.3
419.458	15.32
419.663	15.31
419.869	15.31
420.074	15.3
420.279	15.32
420.485	15.33
420.69	15.33
420.895	15.36
421.101	15.37
421.306	15.4
421.511	15.41
421.716	15.43
421.922	15.45
422.127	15.48
422.332	15.5
422.537	15.52
422.742	15.53
422.947	15.55
423.153	15.55
423.358	15.55
423.563	15.56
423.768	15.56
423.973	15.56
424.178	15.57
424.383	15.55
424.588	15.57
424.793	15.57
424.998	15.57
425.203	15.59
425.408	15.6
425.613	15.62
425.818	15.61
426.023	15.64
426.228	15.68
426.433	15.7
426.638	15.76
426.843	15.79
427.048	15.82
427.253	15.87
427.458	15.92
427.663	15.96
427.867	15.99
428.072	16.04
428.277	16.06
428.482	16.07
428.687	16.09
428.892	16.1
429.096	16.09
429.301	16.1
429.506	16.1
429.711	16.11
429.915	16.12
430.12	16.15
430.325	16.13
430.529	16.14
430.734	16.16
430.939	16.16
431.143	16.17
431.348	16.2
431.553	16.18
431.757	16.18
431.962	16.2
432.166	16.2
432.371	16.21
432.575	16.24
432.78	16.24
432.984	16.23
433.189	16.25
433.394	16.26
433.598	16.25
433.802	16.27
434.007	16.3
434.211	16.29
434.416	16.31
434.62	16.31
434.825	16.33
435.029	16.38
435.233	16.4
435.438	16.42
435.642	16.43
435.846	16.48
436.051	16.49
436.255	16.51
436.459	16.55
436.664	16.54
436.868	16.54
437.072	16.57
437.276	16.59
437.481	16.61
437.685	16.61
437.889	16.61
438.093	16.58
438.298	16.58
438.502	16.57
438.706	16.58
438.91	16.59
439.114	16.6
439.318	16.58
439.522	16.58
439.726	16.58
439.931	16.59
440.135	16.62
440.339	16.65
440.543	16.67
440.747	16.69
440.951	16.69
441.155	16.71
441.359	16.72
441.563	16.73
441.767	16.74
441.971	16.77
442.175	16.81
442.378	16.81
442.582	16.82
442.786	16.86
442.99	16.87
443.194	16.88
443.398	16.91
443.602	16.94
443.806	16.97
444.009	16.97
444.213	16.94
444.417	16.94
444.621	16.97
444.825	16.97
445.028	16.94
445.232	16.96
445.436	16.97
445.639	16.97
445.843	16.97
446.047	16.98
446.251	17.01
446.454	17.03
446.658	17.01
446.861	17.02
447.065	17.04
447.269	17.09
447.472	17.12
447.676	17.14
447.879	17.18
448.083	17.22
448.287	17.23
448.49	17.26
448.694	17.27
448.897	17.31
449.101	17.36
449.304	17.38
449.507	17.41
449.711	17.41
449.914	17.44
450.118	17.45
450.321	17.48
450.525	17.52
450.728	17.54
450.931	17.61
451.135	17.63
451.338	17.61
451.541	17.63
451.745	17.63
451.948	17.67
452.151	17.69
452.355	17.71
452.558	17.7
452.761	17.72
452.964	17.73
453.168	17.73
453.371	17.74
453.574	17.77
453.777	17.8
453.98	17.84
454.183	17.87
454.387	17.9
454.59	17.93
454.793	17.95
454.996	17.98
455.199	18.01
455.402	18.03
455.605	18.07
455.808	18.11
456.011	18.12
456.214	18.12
456.417	18.12
456.62	18.13
456.823	18.14
457.026	18.16
457.229	18.17
457.432	18.18
457.635	18.21
457.838	18.21
458.041	18.17
458.244	18.17
458.447	18.18
458.65	18.17
458.852	18.16
459.055	18.15
459.258	18.15
459.461	18.14
459.664	18.14
459.867	18.11
460.069	18.13
460.272	18.16
460.475	18.19
460.678	18.19
460.88	18.21
461.083	18.25
461.286	18.28
461.488	18.32
461.691	18.36
461.894	18.4
462.096	18.47
462.299	18.5
462.502	18.53
462.704	18.55
462.907	18.58
463.109	18.62
463.312	18.62
463.514	18.65
463.717	18.64
463.92	18.65
464.122	18.67
464.325	18.66
464.527	18.7
464.729	18.73
464.932	18.75
465.134	18.77
465.337	18.8
465.539	18.83
465.742	18.83
465.944	18.87
466.146	18.88
466.349	18.89
466.551	18.92
466.753	18.9
466.956	18.9
467.158	18.92
467.36	18.92
467.563	18.94
467.765	18.95
467.967	18.97
468.169	18.98
468.372	19.02
468.574	19.04
468.776	19.06
468.978	19.09
469.18	19.12
469.383	19.14
469.585	19.19
469.787	19.22
469.989	19.24
470.191	19.27
470.393	19.29
470.595	19.31
470.797	19.34
470.999	19.38
471.201	19.4
471.403	19.43
471.606	19.43
471.808	19.47
472.009	19.49
472.211	19.52
472.413	19.54
472.615	19.59
472.817	19.61
473.019	19.63
473.221	19.66
473.423	19.67
473.625	19.69
473.827	19.73
474.029	19.74
474.231	19.78
474.432	19.8
474.634	19.82
474.836	19.82
475.038	19.84
475.24	19.85
475.441	19.85
475.643	19.84
475.845	19.85
476.046	19.86
476.248	19.88
476.45	19.85
476.652	19.87
476.853	19.88
477.055	19.9
477.257	19.9
477.458	19.92
477.66	19.96
477.861	19.99
478.063	20.02
478.265	20.02
478.466	20.04
478.668	20.07
478.869	20.09
479.071	20.1
479.272	20.11
479.474	20.15
479.675	20.17
479.877	20.16
480.078	20.19
480.28	20.22
480.481	20.22
480.682	20.21
480.884	20.21
481.085	20.22
481.287	20.23
481.488	20.24
481.689	20.23
481.891	20.23
482.092	20.21
482.293	20.17
482.495	20.14
482.696	20.14
482.897	20.16
483.098	20.19
483.3	20.2
483.501	20.24
483.702	20.29
483.903	20.33
484.104	20.35
484.306	20.39
484.507	20.43
484.708	20.45
484.909	20.49
485.11	20.53
485.311	20.55
485.512	20.59
485.713	20.59
485.914	20.59
486.116	20.59
486.317	20.61
486.518	20.63
486.719	20.65
486.92	20.68
487.121	20.69
487.322	20.72
487.523	20.74
487.723	20.77
487.924	20.8
488.125	20.82
488.326	20.85
488.527	20.86
488.728	20.89
488.929	20.93
489.13	20.96
489.331	21
489.531	21.03
489.732	21.06
489.933	21.09
490.134	21.12
490.335	21.15
490.535	21.17
490.736	21.19
490.937	21.21
491.137	21.22
491.338	21.23
491.539	21.24
491.74	21.27
491.94	21.28
492.141	21.3
492.341	21.31
492.542	21.33
492.743	21.36
492.943	21.41
493.144	21.43
493.344	21.48
493.545	21.53
493.746	21.58
493.946	21.6
494.147	21.64
494.347	21.68
494.548	21.74
494.748	21.8
494.949	21.83
495.149	21.84
495.349	21.87
495.55	21.85
495.75	21.88
495.951	21.89
496.151	21.94
496.351	21.97
496.552	21.97
496.752	21.99
496.952	21.99
497.153	22
497.353	22.02
497.553	22.06
497.754	22.09
497.954	22.13
498.154	22.16
498.354	22.19
498.554	22.21
498.755	22.24
498.955	22.26
499.155	22.31
499.355	22.35
499.555	22.39
499.755	22.42
499.956	22.46
500.156	22.46
500.356	22.48
500.556	22.51
500.756	22.55
500.956	22.58
501.156	22.61
501.356	22.62
501.556	22.65
501.756	22.68
501.956	22.7
502.156	22.73
502.356	22.76
502.556	22.8
502.756	22.83
502.956	22.82
503.156	22.83
503.356	22.84
503.555	22.87
503.755	22.89
503.955	22.89
504.155	22.92
504.355	22.96
504.555	22.99
504.754	22.98
504.954	23
505.154	23.03
505.354	23.06
505.553	23.09
505.753	23.1
505.953	23.12
506.153	23.14
506.352	23.17
506.552	23.18
506.752	23.2
506.951	23.24
507.151	23.25
507.351	23.29
507.55	23.31
507.75	23.32
507.949	23.35
508.149	23.38
508.348	23.41
508.548	23.4
508.747	23.43
508.947	23.45
509.146	23.49
509.346	23.51
509.545	23.5
509.745	23.54
509.944	23.58
510.144	23.6
510.343	23.61
510.543	23.63
510.742	23.66
510.941	23.67
511.141	23.68
511.34	23.7
511.539	23.75
511.739	23.77
511.938	23.78
512.137	23.8
512.337	23.84
512.536	23.89
512.735	23.91
512.934	23.94
513.134	23.95
513.333	24
513.532	24.02
513.731	24.03
513.93	24.06
514.129	24.11
514.329	24.15
514.528	24.17
514.727	24.17
514.926	24.2
515.125	24.23
515.324	24.28
515.523	24.3
515.722	24.34
515.921	24.35
516.12	24.39
516.319	24.41
516.518	24.41
516.717	24.42
516.916	24.43
517.115	24.44
517.314	24.46
517.513	24.46
517.712	24.47
517.911	24.47
518.11	24.5
518.309	24.5
518.507	24.53
518.706	24.55
518.905	24.58
519.104	24.6
519.303	24.63
519.501	24.66
519.7	24.7
519.899	24.75
520.098	24.79
520.296	24.82
520.495	24.87
520.694	24.89
520.893	24.94
521.091	24.97
521.29	25.01
521.489	25.06
521.687	25.1
521.886	25.12
522.084	25.12
522.283	25.17
522.482	25.21
522.68	25.25
522.879	25.27
523.077	25.29
523.276	25.31
523.474	25.34
523.673	25.33
523.871	25.34
524.07	25.37
524.268	25.4
524.467	25.4
524.665	25.4
524.863	25.4
525.062	25.43
525.26	25.45
525.459	25.48
525.657	25.51
525.855	25.53
526.054	25.57
526.252	25.59
526.45	25.61
526.649	25.64
526.847	25.67
527.045	25.68
527.243	25.7
527.442	25.72
527.64	25.74
527.838	25.77
528.036	25.8
528.234	25.84
528.433	25.88
528.631	25.92
528.829	25.95
529.027	25.98
529.225	26.01
529.423	26.05
529.621	26.1
529.819	26.13
530.017	26.16
530.215	26.21
530.414	26.24
530.612	26.27
530.81	26.29
531.008	26.32
531.206	26.36
531.403	26.4
531.601	26.4
531.799	26.4
531.997	26.42
532.195	26.44
532.393	26.43
532.591	26.45
532.789	26.47
532.987	26.48
533.184	26.5
533.382	26.54
533.58	26.56
533.778	26.6
533.976	26.64
534.173	26.68
534.371	26.72
534.569	26.76
534.767	26.8
534.964	26.84
535.162	26.87
535.36	26.88
535.557	26.89
535.755	26.93
535.953	26.96
536.15	26.99
536.348	27.03
536.546	27.07
536.743	27.1
536.941	27.13
537.138	27.17
537.336	27.21
537.533	27.26
537.731	27.29
537.928	27.34
538.126	27.38
538.323	27.44
538.521	27.48
538.718	27.51
538.916	27.54
539.113	27.57
539.311	27.61
539.508	27.62
539.705	27.64
539.903	27.64
540.1	27.64
540.297	27.64
540.495	27.63
540.692	27.66
540.889	27.67
541.087	27.7
541.284	27.71
541.481	27.73
541.678	27.78
541.876	27.8
542.073	27.84
542.27	27.87
542.467	27.93
542.664	27.97
542.862	28.01
543.059	28.06
543.256	28.11
543.453	28.15
543.65	28.19
543.847	28.22
544.044	28.26
544.241	28.3
544.438	28.34
544.635	28.36
544.832	28.41
545.029	28.44
545.226	28.45
545.423	28.48
545.62	28.52
545.817	28.56
546.014	28.59
546.211	28.63
546.408	28.65
546.605	28.67
546.802	28.71
546.999	28.75
547.196	28.77
547.392	28.82
547.589	28.87
547.786	28.89
547.983	28.93
548.18	28.97
548.376	29.01
548.573	29.07
548.77	29.12
548.967	29.17
549.163	29.22
549.36	29.28
549.557	29.3
549.753	29.34
549.95	29.38
550.147	29.41
550.343	29.45
550.54	29.5
550.737	29.54
550.933	29.56
551.13	29.6
551.326	29.63
551.523	29.63
551.719	29.67
551.916	29.68
552.112	29.72
552.309	29.75
552.505	29.78
552.702	29.82
552.898	29.84
553.095	29.9
553.291	29.95
553.487	29.99
553.684	30.03
553.88	30.07
554.077	30.13
554.273	30.17
554.469	30.21
554.666	30.25
554.862	30.27
555.058	30.33
555.255	30.37
555.451	30.41
555.647	30.42
555.843	30.47
556.039	30.51
556.236	30.53
556.432	30.56
556.628	30.56
556.824	30.6
557.02	30.64
557.217	30.68
557.413	30.7
557.609	30.72
557.805	30.75
558.001	30.77
558.197	30.79
558.393	30.84
558.589	30.86
558.785	30.91
558.981	30.95
559.177	30.97
559.373	30.98
559.569	31.01
559.765	31.06
559.961	31.12
560.157	31.15
560.353	31.16
560.549	31.17
560.745	31.17
560.941	31.21
561.136	31.24
561.332	31.28
561.528	31.32
561.724	31.36
561.92	31.39
562.116	31.4
562.311	31.46
562.507	31.52
562.703	31.56
562.899	31.64
563.094	31.66
563.29	31.67
563.486	31.67
563.681	31.7
563.877	31.71
564.073	31.73
564.268	31.77
564.464	31.79
564.66	31.8
564.855	31.81
565.051	31.82
565.246	31.85
565.442	31.9
565.637	31.92
565.833	31.94
566.028	31.98
566.224	31.99
566.419	32.01
566.615	32.04
566.81	32.09
567.006	32.14
567.201	32.17
567.397	32.19
567.592	32.23
567.787	32.28
567.983	32.31
568.178	32.35
568.373	32.38
568.569	32.44
568.764	32.45
568.959	32.47
569.155	32.52
569.35	32.54
569.545	32.58
569.74	32.62
569.936	32.66
570.131	32.73
570.326	32.76
570.521	32.79
570.716	32.8
570.912	32.84
571.107	32.86
571.302	32.87
571.497	32.92
571.692	32.96
571.887	32.97
572.082	32.98
572.277	32.99
572.472	33.01
572.667	33.04
572.862	33.07
573.057	33.08
573.252	33.12
573.447	33.15
573.642	33.17
573.837	33.2
574.032	33.22
574.227	33.26
574.422	33.29
574.617	33.35
574.812	33.38
575.007	33.41
575.202	33.47
575.396	33.52
575.591	33.55
575.786	33.59
575.981	33.61
576.176	33.65
576.37	33.68
576.565	33.71
576.76	33.72
576.955	33.74
577.149	33.8
577.344	33.82
577.539	33.87
577.733	33.94
577.928	33.97
578.123	34.04
578.317	34.08
578.512	34.13
578.706	34.17
578.901	34.22
579.096	34.29
579.29	34.35
579.485	34.39
579.679	34.41
579.874	34.42
580.068	34.47
580.263	34.51
580.457	34.54
580.652	34.61
580.846	34.64
581.04	34.67
581.235	34.68
581.429	34.68
581.624	34.73
581.818	34.77
582.012	34.82
582.207	34.86
582.401	34.9
582.595	34.97
582.79	35
582.984	35.09
583.178	35.11
583.372	35.15
583.567	35.16
583.761	35.21
583.955	35.3
584.149	35.32
584.344	35.35
584.538	35.37
584.732	35.38
584.926	35.41
585.12	35.43
585.314	35.48
585.508	35.52
585.702	35.59
585.896	35.65
586.091	35.61
586.285	35.63
586.479	35.64
586.673	35.71
586.867	35.73
587.061	35.74
587.255	35.78
587.449	35.84
587.642	35.88
587.836	35.88
588.03	35.87
588.224	35.94
588.418	35.95
588.612	35.97
588.806	35.97
589	36.01
589.193	36.01
589.387	36
589.581	36
589.775	36.01
589.969	36.03
590.162	36.07
590.356	36.05
590.55	36.12
590.744	36.19
590.937	36.22
591.131	36.25
591.325	36.32
591.518	36.39
591.712	36.43
591.906	36.51
592.099	36.54
592.293	36.6
592.486	36.67
592.68	36.7
592.874	36.73
593.067	36.75
593.261	36.78
593.454	36.85
593.648	36.88
593.841	36.9
594.035	36.9
594.228	36.94
594.421	36.97
594.615	36.98
594.808	36.99
595.002	37
595.195	37.04
595.388	37.06
595.582	37.06
595.775	37.09
595.968	37.11
596.162	37.12
596.355	37.16
596.548	37.16
596.742	37.17
596.935	37.2
597.128	37.24
597.321	37.25
597.515	37.32
597.708	37.32
597.901	37.35
598.094	37.36
598.287	37.43
598.48	37.46
598.674	37.52
598.867	37.57
599.06	37.62
599.253	37.67
599.446	37.72
599.639	37.73
599.832	37.77
600.025	37.82
600.218	37.89
600.411	37.9
600.604	37.93
600.797	37.94
600.99	37.98
601.183	38.03
601.376	38.02
601.569	38.06
601.762	38.06
601.955	38.1
602.147	38.13
602.34	38.16
602.533	38.2
602.726	38.21
602.919	38.23
603.112	38.25
603.304	38.2
603.497	38.26
603.69	38.27
603.883	38.33
604.075	38.32
604.268	38.32
604.461	38.35
604.654	38.36
604.846	38.4
605.039	38.45
605.231	38.48
605.424	38.56
605.617	38.59
605.809	38.63
606.002	38.64
606.194	38.72
606.387	38.78
606.58	38.84
606.772	38.91
606.965	38.94
607.157	39
607.35	39.03
607.542	39.05
607.735	39.07
607.927	39.08
608.119	39.13
608.312	39.16
608.504	39.2
608.697	39.19
608.889	39.2
609.081	39.27
609.274	39.31
609.466	39.33
609.658	39.37
609.851	39.43
610.043	39.49
610.235	39.52
610.427	39.59
610.62	39.65
610.812	39.71
611.004	39.78
611.196	39.79
611.388	39.77
611.581	39.87
611.773	39.92
611.965	39.96
612.157	40.03
612.349	40.09
612.541	40.14
612.733	40.15
612.925	40.18
613.117	40.21
613.309	40.28
613.501	40.37
613.693	40.34
613.885	40.39
614.077	40.43
614.269	40.46
614.461	40.52
614.653	40.5
614.845	40.5
615.037	40.54
615.229	40.58
615.421	40.61
615.613	40.63
615.805	40.66
615.996	40.69
616.188	40.72
616.38	40.76
616.572	40.76
616.764	40.75
616.955	40.78
617.147	40.81
617.339	40.88
617.531	40.9
617.722	40.94
617.914	40.97
618.106	41.01
618.297	41.04
618.489	41.07
618.681	41.11
618.872	41.21
619.064	41.27
619.255	41.33
619.447	41.33
619.639	41.37
619.83	41.42
620.022	41.44
620.213	41.45
620.405	41.49
620.596	41.49
620.788	41.54
620.979	41.6
621.171	41.62
621.362	41.64
621.553	41.69
621.745	41.73
621.936	41.75
622.128	41.87
622.319	41.92
622.51	41.94
622.702	42
622.893	42.04
623.084	42.04
623.276	42.09
623.467	42.12
623.658	42.14
623.849	42.17
624.041	42.18
624.232	42.18
624.423	42.21
624.614	42.24
624.805	42.25
624.996	42.22
625.188	42.23
625.379	42.26
625.57	42.29
625.761	42.28
625.952	42.31
626.143	42.34
626.334	42.35
626.525	42.35
626.716	42.38
626.907	42.38
627.098	42.44
627.289	42.5
627.48	42.54
627.671	42.55
627.862	42.63
628.053	42.65
628.244	42.71
628.435	42.78
628.626	42.84
628.816	42.89
629.007	42.94
629.198	42.97
629.389	42.99
629.58	43.02
629.771	43.06
629.961	43.06
630.152	43.12
630.343	43.15
630.534	43.17
630.724	43.18
630.915	43.23
631.106	43.29
631.296	43.35
631.487	43.39
631.678	43.4
631.868	43.43
632.059	43.49
632.25	43.5
632.44	43.5
632.631	43.54
632.821	43.55
633.012	43.58
633.202	43.57
633.393	43.54
633.583	43.57
633.774	43.6
633.964	43.64
634.155	43.65
634.345	43.7
634.536	43.76
634.726	43.82
634.916	43.89
635.107	43.9
635.297	43.98
635.488	44.08
635.678	44.11
635.868	44.17
636.059	44.24
636.249	44.28
636.439	44.33
636.629	44.36
636.82	44.38
637.01	44.39
637.2	44.44
637.39	44.46
637.581	44.49
637.771	44.52
637.961	44.54
638.151	44.55
638.341	44.6
638.531	44.62
638.721	44.65
638.911	44.71
639.102	44.81
639.292	44.8
639.482	44.83
639.672	44.86
639.862	44.9
640.052	44.97
640.242	44.98
640.432	44.96
640.622	45.05
640.812	45.07
641.002	45.01
641.191	45
641.381	45.1
641.571	45.1
641.761	45.12
641.951	45.17
642.141	45.14
642.331	45.19
642.52	45.26
642.71	45.26
642.9	45.32
643.09	45.4
643.28	45.41
643.469	45.41
643.659	45.48
643.849	45.5
644.038	45.54
644.228	45.6
644.418	45.62
644.607	45.68
644.797	45.77
644.987	45.77
645.176	45.81
645.366	45.88
645.556	45.92
645.745	45.91
645.935	45.9
646.124	45.93
646.314	45.95
646.503	45.95
646.693	45.95
646.882	45.87
647.072	45.89
647.261	45.88
647.45	45.9
647.64	45.93
647.829	46
648.019	46.07
648.208	46.11
648.397	46.18
648.587	46.23
648.776	46.27
648.965	46.34
649.155	46.4
649.344	46.43
649.533	46.51
649.723	46.53
649.912	46.53
650.101	46.56
650.29	46.59
650.479	46.62
650.669	46.68
650.858	46.73
651.047	46.78
651.236	46.78
651.425	46.83
651.614	46.81
651.803	46.81
651.992	46.88
652.182	46.9
652.371	46.93
652.56	46.94
652.749	46.98
652.938	46.99
653.127	47
653.316	47.07
653.505	47.07
653.694	47.12
653.882	47.17
654.071	47.18
654.26	47.23
654.449	47.28
654.638	47.3
654.827	47.28
655.016	47.33
655.205	47.39
655.393	47.42
655.582	47.47
655.771	47.48
655.96	47.57
656.149	47.63
656.337	47.64
656.526	47.65
656.715	47.67
656.903	47.74
657.092	47.73
657.281	47.73
657.469	47.78
657.658	47.82
657.847	47.84
658.035	47.79
658.224	47.76
658.412	47.73
658.601	47.72
658.79	47.73
658.978	47.68
659.167	47.72
659.355	47.73
659.544	47.71
659.732	47.7
659.921	47.71
660.109	47.74
660.297	47.74
660.486	47.86
660.674	47.89
660.863	47.96
661.051	48.02
661.239	48.05
661.428	48.1
661.616	48.15
661.804	48.23
661.993	48.29
662.181	48.32
662.369	48.4
662.557	48.38
662.746	48.45
662.934	48.44
663.122	48.48
663.31	48.52
663.498	48.53
663.687	48.56
663.875	48.58
664.063	48.64
664.251	48.71
664.439	48.77
664.627	48.77
664.815	48.81
665.003	48.85
665.191	48.87
665.379	48.97
665.567	49.02
665.755	49.02
665.943	49.06
666.131	49.12
666.319	49.14
666.507	49.16
666.695	49.18
666.883	49.2
667.071	49.23
667.259	49.3
667.447	49.28
667.635	49.35
667.823	49.44
668.01	49.48
668.198	49.5
668.386	49.53
668.574	49.59
668.761	49.64
668.949	49.65
669.137	49.68
669.325	49.68
669.512	49.71
669.7	49.74
669.888	49.75
670.075	49.81
670.263	49.84
670.451	49.87
670.638	49.89
670.826	49.93
671.013	49.94
671.201	50
671.389	50.03
671.576	50.06
671.764	50.09
671.951	50.15
672.139	50.14
672.326	50.15
672.514	50.17
672.701	50.16
672.889	50.21
673.076	50.31
673.263	50.29
673.451	50.36
673.638	50.42
673.825	50.4
674.013	50.42
674.2	50.41
674.387	50.45
674.575	50.46
674.762	50.46
674.949	50.5
675.137	50.43
675.324	50.48
675.511	50.51
675.698	50.47
675.885	50.48
676.073	50.47
676.26	50.59
676.447	50.66
676.634	50.76
676.821	50.82
677.008	50.79
677.195	50.84
677.383	50.93
677.57	50.89
677.757	50.91
677.944	50.95
678.131	50.97
678.318	50.92
678.505	50.88
678.692	50.84
678.879	50.82
679.066	50.85
679.253	50.87
679.439	50.79
679.626	50.83
679.813	50.84
680	50.88
680.187	50.88
680.374	50.86
680.561	50.9
680.747	50.97
680.934	51.02
681.121	51.03
681.308	51.07
681.494	51.09
681.681	51.14
681.868	51.19
682.055	51.22
682.241	51.31
682.428	51.39
682.615	51.45
682.801	51.46
682.988	51.51
683.175	51.58
683.361	51.66
683.548	51.77
683.734	51.81
683.921	51.87
684.107	51.93
684.294	51.92
684.48	51.96
684.667	52.01
684.853	52.07
685.04	52.11
685.226	52.15
685.413	52.14
685.599	52.17
685.786	52.18
685.972	52.24
686.158	52.24
686.345	52.31
686.531	52.38
686.717	52.33
686.904	52.28
687.09	52.35
687.276	52.39
687.463	52.41
687.649	52.41
687.835	52.4
688.021	52.37
688.208	52.41
688.394	52.38
688.58	52.39
688.766	52.43
688.952	52.48
689.138	52.45
689.324	52.42
689.511	52.47
689.697	52.45
689.883	52.5
690.069	52.55
690.255	52.58
690.441	52.63
690.627	52.65
690.813	52.65
690.999	52.67
691.185	52.75
691.371	52.78
691.557	52.84
691.743	52.91
691.929	52.92
692.115	52.94
692.3	52.96
692.486	53.01
692.672	53.01
692.858	53.15
693.044	53.17
693.23	53.15
693.415	53.17
693.601	53.18
693.787	53.24
693.973	53.32
694.158	53.37
694.344	53.45
694.53	53.45
694.715	53.5
694.901	53.45
695.087	53.53
695.272	53.56
695.458	53.59
695.644	53.58
695.829	53.56
696.015	53.58
696.2	53.53
696.386	53.51
696.571	53.52
696.757	53.54
696.943	53.52
697.128	53.52
697.313	53.45
697.499	53.47
697.684	53.46
697.87	53.43
698.055	53.42
698.241	53.42
698.426	53.31
698.611	53.29
698.797	53.31
698.982	53.3
699.167	53.3
699.353	53.39
699.538	53.43
699.723	53.5
699.909	53.58
700.094	53.64
700.279	53.68
700.464	53.81
700.649	53.93
700.835	54.01
701.02	54.15
701.205	54.23
701.39	54.26
701.575	54.3
701.76	54.3
701.945	54.35
702.13	54.31
702.316	54.39
702.501	54.38
702.686	54.35
702.871	54.32
703.056	54.25
703.241	54.26
703.426	54.34
703.611	54.37
703.796	54.48
703.98	54.46
704.165	54.55
704.35	54.6
704.535	54.64
704.72	54.6
704.905	54.64
705.09	54.76
705.275	54.77
705.459	54.79
705.644	54.78
705.829	54.75
706.014	54.82
706.198	54.87
706.383	54.89
706.568	54.95
706.753	55.09
706.937	55.06
707.122	55
707.307	54.99
707.491	54.98
707.676	54.96
707.86	55.08
708.045	55.09
708.23	55.08
708.414	55.04
708.599	55.01
708.783	55.06
708.968	55.2
709.152	55.3
709.337	55.36
709.521	55.42
709.706	55.52
709.89	55.46
710.075	55.4
710.259	55.43
710.443	55.46
710.628	55.54
710.812	55.53
710.997	55.48
711.181	55.5
711.365	55.47
711.55	55.49
711.734	55.5
711.918	55.5
712.102	55.63
712.287	55.67
712.471	55.75
712.655	55.74
712.839	55.75
713.023	55.79
713.208	55.78
713.392	55.84
713.576	55.82
713.76	55.82
713.944	55.92
714.128	55.87
714.312	55.88
714.496	55.93
714.68	55.96
714.864	55.98
715.048	56
715.232	56
715.416	56.08
715.6	56.07
715.784	56.06
715.968	55.96
716.152	55.94
716.336	56
716.52	56.02
716.704	55.97
716.888	56
717.072	56.04
717.256	56.07
717.439	56.04
717.623	56.12
717.807	56.15
717.991	56.24
718.174	56.35
718.358	56.26
718.542	56.23
718.726	56.37
718.909	56.35
719.093	56.36
719.277	56.46
719.46	56.5
719.644	56.53
719.828	56.56
720.011	56.54
720.195	56.56
720.378	56.56
720.562	56.68
720.746	56.72
720.929	56.74
721.113	56.77
721.296	56.7
721.48	56.68
721.663	56.71
721.846	56.74
722.03	56.91
722.213	56.93
722.397	57.07
722.58	57.03
722.764	57
722.947	57.05
723.13	57.01
723.314	57.14
723.497	57.15
723.68	57.1
723.863	57.11
724.047	57.1
724.23	57.12
724.413	57.16
724.596	57.19
724.78	57.21
724.963	57.24
725.146	57.27
725.329	57.24
725.512	57.17
725.695	57.24
725.879	57.34
726.062	57.28
726.245	57.36
726.428	57.35
726.611	57.24
726.794	57.29
726.977	57.3
727.16	57.32
727.343	57.36
727.526	57.5
727.709	57.52
727.892	57.54
728.075	57.64
728.258	57.64
728.441	57.65
728.624	57.67
728.806	57.57
728.989	57.58
729.172	57.61
729.355	57.63
729.538	57.71
729.721	57.68
729.903	57.64
730.086	57.58
730.269	57.53
730.452	57.56
730.634	57.69
730.817	57.87
731	57.87
731.182	57.92
731.365	57.92
731.548	57.83
731.73	57.84
731.913	57.84
732.095	57.82
732.278	57.81
732.461	57.89
732.643	57.9
732.826	57.94
733.008	58.07
733.191	58.06
733.373	58.05
733.556	58.13
733.738	58.2
733.921	58.27
734.103	58.34
734.285	58.41
734.468	58.34
734.65	58.34
734.833	58.3
735.015	58.26
735.197	58.37
735.38	58.47
735.562	58.49
735.744	58.51
735.926	58.5
736.109	58.53
736.291	58.54
736.473	58.58
736.655	58.56
736.838	58.7
737.02	58.66
737.202	58.73
737.384	58.72
737.566	58.82
737.748	58.88
737.93	58.97
738.113	59.03
738.295	59.09
738.477	59.08
738.659	59.17
738.841	59.06
739.023	59.08
739.205	58.97
739.387	58.96
739.569	58.88
739.751	58.92
739.933	58.93
740.114	58.94
740.296	58.99
740.478	59.07
740.66	59.08
740.842	59.11
741.024	59.25
741.206	59.32
741.387	59.43
741.569	59.51
741.751	59.52
741.933	59.51
742.115	59.56
742.296	59.51
742.478	59.57
742.66	59.58
742.841	59.58
743.023	59.6
743.205	59.55
743.386	59.5
743.568	59.45
743.75	59.49
743.931	59.51
744.113	59.48
744.294	59.62
744.476	59.59
744.657	59.68
744.839	59.81
745.02	59.69
745.202	59.83
745.383	59.88
745.565	59.87
745.746	59.8
745.928	59.84
746.109	59.89
746.291	59.87
746.472	59.84
746.653	59.81
746.835	59.73
747.016	59.75
747.197	59.76
747.379	59.79
747.56	59.89
747.741	59.93
747.922	59.94
748.104	59.94
748.285	59.98
748.466	60.12
748.647	60.19
748.828	60.32
749.01	60.44
749.191	60.45
749.372	60.51
749.553	60.61
749.734	60.61
749.915	60.73
750.096	60.74
750.277	60.7
750.458	60.66
750.639	60.63
750.82	60.63
751.001	60.58
751.182	60.57
751.363	60.6
751.544	60.47
751.725	60.63
751.906	60.61
752.087	60.7
752.268	60.79
752.449	60.84
752.63	60.82
752.81	60.84
752.991	60.92
753.172	60.94
753.353	60.87
753.534	60.98
753.714	60.91
753.895	60.75
754.076	60.66
754.256	60.68
754.437	60.67
754.618	60.73
754.798	60.67
754.979	60.66
755.16	60.63
755.34	60.69
755.521	60.76
755.702	60.64
755.882	60.81
756.063	60.94
756.243	60.97
756.424	60.98
756.604	60.99
756.785	61.07
756.965	61.1
757.146	61.17
757.326	61.15
757.507	61.17
757.687	61.39
757.867	61.4
758.048	61.4
758.228	61.35
758.408	61.43
758.589	61.47
758.769	61.54
758.949	61.57
759.13	61.7
759.31	61.68
759.49	61.59
759.671	61.54
759.851	61.52
760.031	61.51
760.211	61.53
760.391	61.51
760.572	61.62
760.752	61.61
760.932	61.63
761.112	61.49
761.292	61.69
761.472	61.82
761.652	61.85
761.832	61.87
762.012	61.77
762.192	61.69
762.372	61.66
762.552	61.43
762.732	61.42
762.912	61.38
763.092	61.33
763.272	61.17
763.452	61.07
763.632	61.11
763.812	61.15
763.992	61.2
764.172	61.22
764.351	61.26
764.531	61.34
764.711	61.3
764.891	61.29
765.071	61.36
765.25	61.45
765.43	61.49
765.61	61.49
765.79	61.45
765.969	61.47
766.149	61.55
766.329	61.55
766.508	61.65
766.688	61.78
766.867	61.95
767.047	62.05
767.227	62.06
767.406	62.12
767.586	62.15
767.765	62.17
767.945	62.3
768.124	62.26
768.304	62.3
768.483	62.23
768.663	62.19
768.842	62.04
769.022	61.94
769.201	61.93
769.38	61.93
769.56	62.01
769.739	62.03
769.919	61.85
770.098	61.94
770.277	61.82
770.457	61.83
770.636	61.91
770.815	61.94
770.994	62.14
771.174	62.05
771.353	62.17
771.532	62.09
771.711	62.15
771.89	62.13
772.07	62.17
772.249	62.29
772.428	62.26
772.607	62.22
772.786	62.36
772.965	62.28
773.144	62.44
773.323	62.24
773.502	62.33
773.681	62.35
773.86	62.62
774.039	62.67
774.218	62.72
774.397	62.91
774.576	62.92
774.755	62.92
774.934	63.02
775.113	63.17
775.292	63.54
775.471	63.63
775.65	63.67
775.828	63.64
776.007	63.52
776.186	63.37
776.365	63.25
776.544	63.28
776.722	63.25
776.901	63.14
777.08	63.01
777.258	62.86
777.437	62.81
777.616	62.81
777.795	62.75
777.973	62.85
778.152	62.9
778.33	62.99
778.509	63.04
778.688	63.05
778.866	63.11
779.045	63.06
779.223	63.09
779.402	63
779.58	63.04
779.759	63.07
779.937	63.08
780.116	63.23
780.294	63.23
780.473	63.19
780.651	63.19
780.829	63.25
781.008	63.18
781.186	63.17
781.364	63.34
781.543	63.35
781.721	63.29
781.899	63.32
782.078	63.27
782.256	63.38
782.434	63.45
782.612	63.54
782.791	63.53
782.969	63.71
783.147	63.73
783.325	63.76
783.503	63.94
783.681	64.01
783.86	64.05
784.038	64.17
784.216	64.07
784.394	63.95
784.572	63.82
784.75	63.76
784.928	63.79
785.106	63.73
785.284	63.61
785.462	63.48
785.64	63.49
785.818	63.61
785.996	63.79
786.174	63.93
786.352	64.16
786.53	64.26
786.707	64.33
786.885	64.24
787.063	64.31
787.241	64.42
787.419	64.29
787.597	64.37
787.774	64.31
787.952	64.11
788.13	64.15
788.308	64.12
788.485	64.05
788.663	64.09
788.841	64.24
789.018	64.24
789.196	64.28
789.374	64.34
789.551	64.35
789.729	64.37
789.906	64.39
790.084	64.39
790.262	64.32
790.439	64.35
790.617	64.33
790.794	64.05
790.972	64.03
791.149	64.03
791.327	64.12
791.504	64.14
791.681	64.06
791.859	64.03
792.036	63.93
792.214	63.98
792.391	64.11
792.568	64.05
792.746	64.3
792.923	64.47
793.1	64.46
793.278	64.48
793.455	64.53
793.632	64.72
793.809	64.87
793.987	64.89
794.164	65.05
794.341	64.97
794.518	65.05
794.695	65.12
794.872	64.93
795.05	64.89
795.227	64.93
795.404	64.81
795.581	64.79
795.758	64.72
795.935	64.83
796.112	64.74
796.289	64.73
796.466	64.78
796.643	64.65
796.82	64.65
796.997	64.6
797.174	64.54
797.351	64.53
797.528	64.6
797.704	64.63
797.881	64.62
798.058	64.69
798.235	64.81
798.412	64.73
798.589	64.69
798.765	64.79
798.942	64.87
799.119	64.87
799.296	64.92
799.472	64.84
799.649	64.85
799.826	64.79
800.003	64.83
800.179	64.76
800.356	64.78
800.533	64.98
800.709	65.1
800.886	65
801.062	65.08
801.239	65.26
801.415	65.32
801.592	65.39
801.769	65.27
801.945	65.17
802.122	65.18
802.298	65.21
802.474	65.26
802.651	65.24
802.827	65.45
803.004	65.41
803.18	65.36
803.356	65.4
803.533	65.24
803.709	65.39
803.886	65.39
804.062	65.44
804.238	65.58
804.414	65.5
804.591	65.43
804.767	65.17
804.943	65.22
805.119	65.11
805.296	64.91
805.472	65.12
805.648	65.21
805.824	65.29
806	65.21
806.176	65.18
806.352	65.23
806.529	65.27
806.705	65.7
806.881	65.74
807.057	65.88
807.233	65.98
807.409	65.91
807.585	65.89
807.761	65.87
807.937	65.94
808.113	65.98
808.289	66.02
808.464	66.35
808.64	66.04
808.816	66.08
808.992	66.07
809.168	65.95
809.344	65.8
809.52	65.81
809.695	65.77
809.871	65.64
810.047	65.51
810.223	65.38
810.398	65.09
810.574	65.16
810.75	65.18
810.926	65.17
811.101	65.33
811.277	65.52
811.453	65.54
811.628	65.69
811.804	66.09
811.979	66.11
812.155	66.18
812.331	66.05
812.506	66.19
812.682	66.26
812.857	66.31
813.033	66.25
813.208	66.38
813.384	66.39
813.559	66.35
813.734	66.05
813.91	66.16
814.085	66.22
814.261	66.48
814.436	66.37
814.611	66.42
814.787	66.49
814.962	66.77
815.137	66.7
815.313	66.81
815.488	66.83
815.663	67.25
815.838	67.27
816.014	67.29
816.189	67.14
816.364	67.21
816.539	67.03
816.714	67.11
816.89	66.89
817.065	66.93
817.24	66.99
817.415	66.91
817.59	66.71
817.765	66.57
817.94	66.66
818.115	66.68
818.29	66.58
818.465	66.69
818.64	66.82
818.815	66.75
818.99	66.74
819.165	66.57
819.34	66.58
819.515	66.36
819.69	66.51
819.865	66.4
820.039	66.46
820.214	66.51
820.389	66.4
820.564	66.08
820.739	66.16
820.913	66.07
821.088	66
821.263	65.91
821.438	65.72
821.612	65.46
821.787	65.41
821.962	65.24
822.136	65.05
822.311	64.99
822.486	64.96
822.66	64.92
822.835	64.95
823.009	65.01
823.184	65.11
823.359	65.21
823.533	65.28
823.708	65.33
823.882	65.45
824.057	65.59
824.231	65.7
824.405	65.85
824.58	66.02
824.754	66.14
824.929	66.19
825.103	66.23
825.277	66.33
825.452	66.5
825.626	66.55
825.801	66.54
825.975	66.58
826.149	66.63
826.323	66.6
826.498	66.45
826.672	66.36
826.846	66.28
827.02	66.13
827.195	65.98
827.369	65.82
827.543	65.76
827.717	65.7
827.891	65.83
828.065	65.83
828.239	65.94
828.413	66.01
828.587	66.14
828.762	66.29
828.936	66.5
829.11	66.74
829.284	66.97
829.458	67.2
829.632	67.49
829.805	67.43
829.979	67.54
830.153	67.63
830.327	67.78
830.501	67.92
830.675	68.01
830.849	67.93
831.023	67.82
831.196	67.89
831.37	67.92
831.544	67.83
831.718	67.99
831.892	68.14
832.065	68.02
832.239	68.08
832.413	68.02
832.586	67.69
832.76	67.68
832.934	67.66
833.107	67.29
833.281	67.24
833.455	67.04
833.628	66.7
833.802	66.54
833.975	66.46
834.149	66.51
834.322	66.48
834.496	66.55
834.67	66.62
834.843	66.72
835.016	66.78
835.19	66.7
835.363	66.89
835.537	67.03
835.71	67.15
835.884	67.32
836.057	67.44
836.23	67.49
836.404	67.67
836.577	67.71
836.75	67.68
836.923	67.77
837.097	68.11
837.27	68.17
837.443	68.46
837.616	68.52
837.79	68.59
837.963	68.48
838.136	68.55
838.309	68.67
838.482	68.78
838.655	68.73
838.829	69.01
839.002	69.19
839.175	69.17
839.348	69.18
839.521	69.29
839.694	68.95
839.867	69.01
840.04	69.02
840.213	68.85
840.386	68.88
840.559	69
840.732	68.73
840.905	68.52
841.077	68.42
841.25	68.38
841.423	68.53
841.596	68.86
841.769	68.9
841.942	68.72
842.114	68.98
842.287	68.8
842.46	68.85
842.633	69.17
842.806	69.17
842.978	69.6
843.151	70.02
843.324	69.8
843.496	69.75
843.669	69.74
843.842	70.41
844.014	70.32
844.187	70.76
844.359	71.03
844.532	70.85
844.704	70.91
844.877	70.57
845.05	70.56
845.222	70.8
845.395	71.17
845.567	71.35
845.739	71.1
845.912	70.86
846.084	71.13
846.257	71
846.429	70.92
846.601	70.73
846.774	71.05
846.946	70.84
847.119	71.19
847.291	70.9
847.463	70.82
847.635	70.66
847.808	71.09
847.98	70.85
848.152	71.09
848.324	71.84
848.497	72.12
848.669	72.39
848.841	72.95
849.013	72.53
849.185	72.65
849.357	72.91
849.529	73.21
849.701	73.26
849.873	73.05
850.046	72.8
850.218	72.9
850.39	73.36
850.562	73.03
850.734	72.37
850.906	71.92
851.077	71.78
851.249	71.46
851.421	72.1
851.593	71.95
851.765	72.33
851.937	72.47
852.109	71.76
852.281	71.15
852.452	70.71
852.624	70.91
852.796	71.72
852.968	71.79
853.14	71.78
853.311	71.1
853.483	71.34
853.655	71.33
853.826	71.4
853.998	71.73
854.17	71.99
854.341	72.61
854.513	72.83
854.685	72.67
854.856	72.7
855.028	73.29
855.199	73.66
855.371	73
855.542	73.15
855.714	73.52
855.885	73.85
856.057	74.16
856.228	73.97
856.4	73.37
856.571	73.44
856.743	73.6
856.914	73.14
857.085	72.51
857.257	73.36
857.428	73.26
857.599	72.84
857.771	72.18
857.942	71.48
858.113	71.44
858.284	71.94
858.456	71.65
858.627	71.48
858.798	71.56
858.969	72.18
859.141	72.04
859.312	72.66
859.483	72.85
859.654	73.29
859.825	73.85
859.996	74.14
860.167	73.9
860.338	74.49
860.509	74.68
860.68	75.05
860.851	74.86
861.022	74.77
861.193	73.98
861.364	73.31
861.535	73.61
861.706	73.94
861.877	73.93
862.048	73.97
862.219	74.31
862.39	74.73
862.561	75
862.731	75.08
862.902	75.14
863.073	74.82
863.244	75.5
863.415	75.26
863.585	75.61
863.756	75.45
863.927	75.29
864.097	74.77
864.268	74.5
864.439	74.27
864.609	74.4
864.78	74.17
864.951	74
865.121	73.66
865.292	73.45
865.463	72.72
865.633	73.08
865.804	73.99
865.974	73.7
866.145	73.97
866.315	73.23
866.486	73.31
866.656	73.66
866.826	74.56
866.997	75.15
867.167	75.61
867.338	76.28
867.508	75.62
867.678	75.39
867.849	75.8
868.019	75.07
868.189	75.19
868.36	75.18
868.53	74.99
868.7	74.77
868.87	74.34
869.041	74.53
869.211	73.99
869.381	74.2
869.551	74.09
869.721	73.85
869.891	74.38
870.062	74.91
870.232	74.86
870.402	75.15
870.572	75.24
870.742	75.52
870.912	75.06
871.082	75.1
871.252	75.73
871.422	74.92
871.592	75.61
871.762	75.08
871.932	75.42
872.102	75.89
872.272	75.79
872.442	75.59
872.611	75.22
872.781	75.33
872.951	74.73
873.121	74.61
873.291	75.37
873.461	74.83
873.63	75.16
873.8	75.17
873.97	74.85
874.14	75.3
874.309	75.19
874.479	75.36
874.649	75.03
874.818	75.84
874.988	75.21
875.158	74.83
875.327	74.77
875.497	75.08
875.666	74.52
875.836	74.14
876.005	73.53
876.175	73.83
876.344	74.12
876.514	74.19
876.683	74.05
876.853	74.48
877.022	74.13
877.192	73.83
877.361	74.24
877.531	74.14
877.7	74.34
877.869	74.92
878.039	75.17
878.208	74.89
878.377	75.34
878.547	75.78
878.716	75.65
878.885	75.89
879.054	76
879.224	75.22
879.393	75.4
879.562	75.57
879.731	75.13
879.9	74.7
880.069	74.62
880.239	74.37
880.408	73.42
880.577	72.75
880.746	72.87
880.915	72.38
881.084	71.98
881.253	71.54
881.422	70.89
881.591	70.24
881.76	69.69
881.929	69.39
882.098	69.09
882.267	69.17
882.436	69.14
882.605	69.09
882.773	69.06
882.942	69.12
883.111	69.15
883.28	69.31
883.449	69.47
883.618	69.72
883.786	69.85
883.955	69.92
884.124	70.02
884.293	69.99
884.461	70.03
884.63	70.21
884.799	70.37
884.967	70.62
885.136	70.64
885.305	70.76
885.473	70.81
885.642	71.12
885.81	71.5
885.979	71.59
886.148	72.17
886.316	72.5
886.485	72.67
886.653	72.83
886.822	72.9
886.99	73.27
887.158	73.12
887.327	73.51
887.495	73.15
887.664	73.04
887.832	72.98
888	73.25
888.169	73.53
888.337	74.2
888.505	74.5
888.674	74.76
888.842	74.95
889.01	75.78
889.178	75.46
889.347	75.8
889.515	76.07
889.683	76.97
889.851	77.54
