Data from Bird_1_Reflection_2.txt Node
Date: Fri Jan 31 09:36:42 MST 2020
User: Lab User
Spectrometer: USB4J01344
Trigger mode: 0
Integration Time (sec): 1.047400E-1
Scans to average: 20
Electric dark correction enabled: false
Nonlinearity correction enabled: false
Boxcar width: 5
XAxis mode: Wavelengths
Number of Pixels in Spectrum: 3648
>>>>>Begin Spectral Data<<<<<
177.498	-132.82
177.717	-130.48
177.936	-203.3
178.155	-195.92
178.374	-225.24
178.593	-261.16
178.812	-488.75
179.031	-741.73
179.251	-813.28
179.47	-1281.67
179.689	-1509.62
179.908	7933.33
180.127	373.54
180.346	273.11
180.565	194.57
180.784	166.82
181.003	135.87
181.222	127.7
181.441	112.77
181.66	103.72
181.879	95.04
182.098	89.99
182.316	90.5
182.535	98.3
182.754	94.13
182.973	93.34
183.192	93.19
183.411	96.8
183.63	97.09
183.849	103.25
184.067	106.14
184.286	110.68
184.505	112.51
184.724	109.36
184.943	100.12
185.161	101.34
185.38	100.43
185.599	100.09
185.818	94.49
186.036	98.7
186.255	94.6
186.474	89.54
186.693	91.56
186.911	90.82
187.13	90.7
187.349	97.2
187.567	98.63
187.786	96.93
188.004	92.97
188.223	100.25
188.442	100.15
188.66	98.51
188.879	99.48
189.097	98.34
189.316	97.16
189.535	95.21
189.753	98.76
189.972	94.73
190.19	100.41
190.409	101.56
190.627	102.49
190.846	99.57
191.064	101.75
191.283	99.31
191.501	96.37
191.719	103.35
191.938	105.5
192.156	96.07
192.375	96.18
192.593	87.33
192.811	89.62
193.03	93.17
193.248	93.71
193.467	93.55
193.685	94.2
193.903	89.67
194.121	86.55
194.34	84.95
194.558	92.1
194.776	90.84
194.995	96.53
195.213	96.46
195.431	88.33
195.649	87.13
195.868	86.16
196.086	89.36
196.304	91.18
196.522	85.59
196.74	82.52
196.958	75.08
197.177	79.05
197.395	77.06
197.613	77.08
197.831	79.72
198.049	81.34
198.267	84.83
198.485	80.66
198.703	81.83
198.921	86.62
199.139	89.85
199.358	90.8
199.576	93.45
199.794	93.19
200.012	91.88
200.23	93.63
200.448	97.09
200.666	94
200.883	95.79
201.101	98.25
201.319	98.54
201.537	96.79
201.755	99.69
201.973	97.34
202.191	96.05
202.409	99.98
202.627	93.38
202.845	91.81
203.062	89.59
203.28	87.89
203.498	83.78
203.716	84.29
203.934	83.91
204.151	83.17
204.369	78.89
204.587	79.23
204.805	76.8
205.022	79.87
205.24	75
205.458	77.62
205.676	83.68
205.893	88.73
206.111	85.79
206.329	84.12
206.546	81.58
206.764	80.93
206.982	82.79
207.199	84.45
207.417	80.83
207.634	81.05
207.852	80.06
208.07	75.49
208.287	75.82
208.505	74.85
208.722	73.83
208.94	78.33
209.157	81.62
209.375	79.29
209.592	80.11
209.81	82.74
210.027	81.43
210.245	83.58
210.462	86.74
210.68	84.41
210.897	86.09
211.115	92.01
211.332	85.99
211.549	83.12
211.767	85.2
211.984	79.8
212.201	75.11
212.419	76.55
212.636	73.93
212.854	71.92
213.071	71.65
213.288	73.77
213.505	70.68
213.723	72.08
213.94	76.31
214.157	74.7
214.374	76.37
214.592	81.83
214.809	82.81
215.026	83.59
215.243	84.58
215.461	84.96
215.678	81.44
215.895	81.99
216.112	82.59
216.329	80.1
216.546	80.48
216.763	81.06
216.981	81.4
217.198	78.13
217.415	78.54
217.632	77.84
217.849	76.65
218.066	80.21
218.283	79.32
218.5	73.81
218.717	73
218.934	75.56
219.151	75.06
219.368	74.25
219.585	76.37
219.802	76.04
220.019	77.24
220.236	74.03
220.453	71.52
220.67	70.97
220.887	75.38
221.103	71.98
221.32	66.59
221.537	67.36
221.754	65.5
221.971	63.76
222.188	59.66
222.405	57.04
222.621	61.92
222.838	65.6
223.055	64.38
223.272	62.52
223.488	63.24
223.705	63.84
223.922	64.95
224.139	66.11
224.355	69.35
224.572	71.77
224.789	72.47
225.005	68.99
225.222	63.77
225.439	64.33
225.655	65.04
225.872	63.59
226.089	65.25
226.305	63.04
226.522	61.23
226.738	55.47
226.955	51.65
227.172	45.79
227.388	43.43
227.605	41.14
227.821	37.81
228.038	34.23
228.254	33.03
228.471	32.03
228.687	31.94
228.904	31.58
229.12	31.45
229.337	31.15
229.553	32.44
229.77	31.93
229.986	32.65
230.202	32.5
230.419	35.43
230.635	36.68
230.851	35.52
231.068	34.54
231.284	34.66
231.501	35.28
231.717	35.21
231.933	36.63
232.149	36.64
232.366	35.58
232.582	36.43
232.798	34.88
233.015	33.65
233.231	33.48
233.447	33.81
233.663	31.78
233.879	31.3
234.096	30.98
234.312	30.43
234.528	30.1
234.744	29.49
234.96	29.33
235.176	28.87
235.393	29.12
235.609	28.33
235.825	27.51
236.041	28.8
236.257	28.79
236.473	29.08
236.689	28.56
236.905	28.23
237.121	29.1
237.337	28.66
237.553	28.32
237.769	27.16
237.985	27.77
238.201	27.85
238.417	26.9
238.633	25.6
238.849	25.33
239.065	24.38
239.281	23.37
239.497	22.1
239.713	21.71
239.928	21.78
240.144	21.59
240.36	20.96
240.576	19.92
240.792	19.27
241.008	18.98
241.223	18.38
241.439	18.17
241.655	18.08
241.871	17.93
242.087	17.64
242.302	17.28
242.518	17.14
242.734	17.02
242.95	17.1
243.165	17.32
243.381	17.52
243.597	17.5
243.812	17.65
244.028	17.87
244.244	18.25
244.459	18.53
244.675	18.66
244.89	18.82
245.106	18.55
245.322	18.14
245.537	17.66
245.753	17.12
245.968	16.79
246.184	16.55
246.399	16.34
246.615	16.13
246.83	16.06
247.046	16.06
247.261	15.98
247.477	15.97
247.692	16.03
247.908	16.04
248.123	16.14
248.339	16.32
248.554	16.48
248.769	16.72
248.985	17
249.2	17.17
249.416	17.29
249.631	17.56
249.846	17.66
250.062	17.82
250.277	17.9
250.492	18.1
250.707	18.17
250.923	17.73
251.138	17.36
251.353	17.16
251.569	17.07
251.784	17.04
251.999	17.09
252.214	17.18
252.429	17.06
252.645	17.14
252.86	17.08
253.075	17.09
253.29	17.38
253.505	17.6
253.72	17.81
253.935	18.07
254.151	18.35
254.366	18.52
254.581	18.58
254.796	19.09
255.011	19.2
255.226	19.26
255.441	19.26
255.656	19.13
255.871	19.03
256.086	18.76
256.301	18.61
256.516	18.18
256.731	17.81
256.946	17.73
257.161	17.44
257.376	17.1
257.591	16.98
257.806	16.79
258.02	16.61
258.235	16.31
258.45	16.04
258.665	15.75
258.88	15.65
259.095	15.44
259.31	15.27
259.524	15.16
259.739	15.24
259.954	15.14
260.169	15.16
260.383	15.16
260.598	15.2
260.813	15.26
261.028	15.32
261.242	15.35
261.457	15.51
261.672	15.73
261.886	15.87
262.101	15.88
262.316	15.78
262.53	15.74
262.745	15.74
262.96	15.91
263.174	15.86
263.389	15.86
263.603	15.89
263.818	15.94
264.033	15.74
264.247	15.87
264.462	15.66
264.676	16.02
264.891	16.18
265.105	16.16
265.32	15.94
265.534	15.92
265.749	15.89
265.963	15.87
266.178	15.82
266.392	15.91
266.606	15.94
266.821	15.98
267.035	15.89
267.25	15.68
267.464	15.51
267.678	15.51
267.893	15.48
268.107	15.48
268.321	15.53
268.536	15.37
268.75	15.32
268.964	15.2
269.179	15.26
269.393	15.3
269.607	15.31
269.821	15.42
270.036	15.31
270.25	15.29
270.464	15.16
270.678	14.97
270.892	14.97
271.106	14.9
271.321	14.76
271.535	14.78
271.749	14.64
271.963	14.63
272.177	14.54
272.391	14.46
272.605	14.32
272.819	14.35
273.033	14.4
273.248	14.41
273.462	14.43
273.676	14.54
273.89	14.43
274.104	14.48
274.318	14.48
274.532	14.59
274.746	14.72
274.96	14.87
275.173	14.9
275.387	14.83
275.601	14.83
275.815	14.88
276.029	14.84
276.243	14.89
276.457	14.99
276.671	15
276.885	14.92
277.098	14.85
277.312	14.86
277.526	14.85
277.74	14.9
277.954	14.86
278.167	14.8
278.381	14.88
278.595	14.9
278.809	14.92
279.022	14.92
279.236	14.93
279.45	14.96
279.663	14.91
279.877	14.82
280.091	14.78
280.304	14.87
280.518	14.85
280.732	14.72
280.945	14.66
281.159	14.59
281.373	14.57
281.586	14.54
281.8	14.54
282.013	14.56
282.227	14.66
282.44	14.65
282.654	14.61
282.867	14.64
283.081	14.71
283.294	14.68
283.508	14.64
283.721	14.6
283.935	14.66
284.148	14.66
284.362	14.62
284.575	14.58
284.789	14.49
285.002	14.4
285.215	14.41
285.429	14.39
285.642	14.36
285.855	14.33
286.069	14.37
286.282	14.39
286.495	14.41
286.709	14.42
286.922	14.44
287.135	14.58
287.348	14.71
287.562	14.76
287.775	14.81
287.988	14.93
288.201	15.03
288.415	15.12
288.628	15.16
288.841	15.18
289.054	15.22
289.267	15.22
289.48	15.23
289.694	15.26
289.907	15.26
290.12	15.28
290.333	15.35
290.546	15.44
290.759	15.46
290.972	15.48
291.185	15.51
291.398	15.56
291.611	15.7
291.824	15.84
292.037	15.85
292.25	15.94
292.463	16.09
292.676	16.15
292.889	16.18
293.102	16.21
293.315	16.3
293.528	16.43
293.741	16.47
293.954	16.46
294.166	16.43
294.379	16.52
294.592	16.57
294.805	16.57
295.018	16.59
295.231	16.64
295.443	16.69
295.656	16.75
295.869	16.78
296.082	16.81
296.295	16.85
296.507	16.83
296.72	16.87
296.933	16.84
297.145	16.83
297.358	16.82
297.571	16.85
297.783	16.87
297.996	16.85
298.209	16.88
298.421	16.92
298.634	16.97
298.847	17.08
299.059	17.12
299.272	17.23
299.484	17.35
299.697	17.46
299.91	17.47
300.122	17.51
300.335	17.58
300.547	17.57
300.76	17.67
300.972	17.64
301.185	17.67
301.397	17.75
301.609	17.82
301.822	17.86
302.034	17.92
302.247	18.06
302.459	18.11
302.672	18.18
302.884	18.28
303.096	18.34
303.309	18.43
303.521	18.46
303.733	18.48
303.946	18.48
304.158	18.46
304.37	18.49
304.583	18.54
304.795	18.56
305.007	18.65
305.219	18.74
305.432	18.76
305.644	18.81
305.856	18.9
306.068	18.92
306.28	19.02
306.493	19.15
306.705	19.17
306.917	19.13
307.129	19.26
307.341	19.23
307.553	19.23
307.765	19.24
307.977	19.27
308.189	19.23
308.402	19.28
308.614	19.24
308.826	19.24
309.038	19.32
309.25	19.41
309.462	19.38
309.674	19.38
309.886	19.3
310.098	19.31
310.31	19.31
310.522	19.37
310.733	19.33
310.945	19.38
311.157	19.37
311.369	19.32
311.581	19.29
311.793	19.34
312.005	19.4
312.217	19.51
312.428	19.54
312.64	19.6
312.852	19.71
313.064	19.83
313.276	19.95
313.487	20.07
313.699	20.23
313.911	20.3
314.123	20.33
314.334	20.43
314.546	20.5
314.758	20.57
314.97	20.64
315.181	20.61
315.393	20.63
315.604	20.58
315.816	20.6
316.028	20.56
316.239	20.56
316.451	20.57
316.663	20.59
316.874	20.62
317.086	20.59
317.297	20.59
317.509	20.63
317.72	20.7
317.932	20.79
318.143	20.81
318.355	20.91
318.566	20.91
318.778	21.01
318.989	20.99
319.201	21.02
319.412	21.07
319.624	21.14
319.835	21.13
320.046	21.14
320.258	21.14
320.469	21.18
320.68	21.2
320.892	21.27
321.103	21.37
321.314	21.43
321.526	21.55
321.737	21.6
321.948	21.68
322.16	21.72
322.371	21.69
322.582	21.59
322.793	21.58
323.005	21.66
323.216	21.69
323.427	21.58
323.638	21.53
323.849	21.43
324.06	21.42
324.272	21.34
324.483	21.36
324.694	21.4
324.905	21.49
325.116	21.5
325.327	21.47
325.538	21.4
325.749	21.42
325.96	21.43
326.171	21.5
326.382	21.58
326.593	21.63
326.804	21.66
327.015	21.71
327.226	21.8
327.437	21.85
327.648	21.86
327.859	22.02
328.07	22.19
328.281	22.25
328.492	22.26
328.703	22.29
328.914	22.32
329.125	22.37
329.335	22.39
329.546	22.37
329.757	22.4
329.968	22.4
330.179	22.39
330.39	22.36
330.6	22.47
330.811	22.45
331.022	22.52
331.233	22.57
331.443	22.61
331.654	22.57
331.865	22.53
332.075	22.53
332.286	22.51
332.497	22.53
332.707	22.5
332.918	22.48
333.129	22.5
333.339	22.39
333.55	22.38
333.761	22.37
333.971	22.5
334.182	22.63
334.392	22.62
334.603	22.74
334.813	22.71
335.024	22.73
335.234	22.7
335.445	22.74
335.655	22.8
335.866	22.85
336.076	22.86
336.287	22.78
336.497	22.7
336.708	22.79
336.918	22.75
337.128	22.81
337.339	22.84
337.549	22.89
337.759	22.94
337.97	22.95
338.18	22.92
338.39	22.94
338.601	23.01
338.811	23.08
339.021	23.01
339.232	23.03
339.442	23.03
339.652	23.11
339.862	23.14
340.073	23.19
340.283	23.27
340.493	23.27
340.703	23.29
340.913	23.25
341.124	23.17
341.334	23.23
341.544	23.28
341.754	23.24
341.964	23.2
342.174	23.19
342.384	23.19
342.594	23.17
342.804	23.25
343.014	23.31
343.224	23.35
343.435	23.38
343.645	23.37
343.855	23.33
344.065	23.39
344.274	23.38
344.484	23.44
344.694	23.45
344.904	23.46
345.114	23.39
345.324	23.31
345.534	23.25
345.744	23.31
345.954	23.34
346.164	23.32
346.374	23.32
346.583	23.31
346.793	23.33
347.003	23.31
347.213	23.4
347.423	23.42
347.632	23.47
347.842	23.54
348.052	23.58
348.262	23.61
348.471	23.64
348.681	23.62
348.891	23.65
349.1	23.65
349.31	23.71
349.52	23.64
349.729	23.76
349.939	23.83
350.149	23.81
350.358	23.78
350.568	23.81
350.778	23.84
350.987	23.94
351.197	24.01
351.406	23.53
351.616	23.54
351.825	23.65
352.035	23.6
352.244	23.6
352.454	23.62
352.663	23.72
352.873	23.73
353.082	23.77
353.292	23.73
353.501	23.74
353.711	24.22
353.92	24.24
354.129	24.2
354.339	24.23
354.548	24.27
354.757	24.28
354.967	24.24
355.176	24.22
355.385	24.24
355.595	24.25
355.804	24.24
356.013	24.25
356.223	24.23
356.432	24.22
356.641	24.24
356.85	24.21
357.059	24.27
357.269	24.28
357.478	24.33
357.687	24.35
357.896	24.37
358.105	24.38
358.314	24.44
358.524	24.49
358.733	24.48
358.942	24.46
359.151	24.46
359.36	24.45
359.569	24.48
359.778	24.54
359.987	24.52
360.196	24.52
360.405	24.55
360.614	24.47
360.823	24.44
361.032	24.47
361.241	24.46
361.45	24.51
361.659	24.5
361.868	24.49
362.077	24.47
362.286	24.54
362.495	24.59
362.704	24.59
362.912	24.61
363.121	24.63
363.33	24.65
363.539	24.7
363.748	24.74
363.957	24.78
364.165	24.82
364.374	24.84
364.583	24.79
364.792	24.8
365	24.81
365.209	24.86
365.418	24.89
365.626	24.91
365.835	24.95
366.044	24.95
366.253	24.97
366.461	25
366.67	24.97
366.878	25.04
367.087	25.03
367.296	25.1
367.504	25.07
367.713	25.14
367.921	25.16
368.13	25.21
368.338	25.18
368.547	25.2
368.755	25.23
368.964	25.3
369.172	25.3
369.381	25.37
369.589	25.37
369.798	25.46
370.006	25.49
370.215	25.53
370.423	25.42
370.632	25.5
370.84	25.49
371.048	25.51
371.257	25.56
371.465	25.58
371.673	25.59
371.882	25.6
372.09	25.64
372.298	25.66
372.507	25.69
372.715	25.78
372.923	25.8
373.131	25.79
373.34	25.78
373.548	25.8
373.756	25.8
373.964	25.82
374.172	25.85
374.381	25.83
374.589	25.78
374.797	25.79
375.005	25.82
375.213	25.82
375.421	25.86
375.629	25.91
375.837	25.86
376.045	25.85
376.254	25.85
376.462	25.81
376.67	25.8
376.878	25.8
377.086	25.79
377.294	25.82
377.502	25.78
377.71	25.83
377.918	25.85
378.126	25.88
378.333	25.93
378.541	25.95
378.749	26
378.957	26.06
379.165	26.13
379.373	26.13
379.581	26.16
379.789	26.21
379.996	26.18
380.204	26.17
380.412	26.2
380.62	26.21
380.828	26.23
381.035	26.23
381.243	26.27
381.451	26.25
381.659	26.3
381.866	26.3
382.074	26.32
382.282	26.4
382.489	26.45
382.697	26.46
382.905	26.46
383.112	26.45
383.32	26.42
383.528	26.35
383.735	26.34
383.943	26.34
384.15	26.36
384.358	26.39
384.565	26.37
384.773	26.36
384.981	26.36
385.188	26.37
385.396	26.43
385.603	26.48
385.811	26.53
386.018	26.54
386.225	26.55
386.433	26.58
386.64	26.61
386.848	26.59
387.055	26.58
387.263	26.57
387.47	26.58
387.677	26.53
387.885	26.54
388.092	26.55
388.299	26.63
388.507	26.62
388.714	26.62
388.921	26.63
389.128	26.68
389.336	26.73
389.543	26.81
389.75	26.84
389.957	26.85
390.165	26.88
390.372	26.9
390.579	26.88
390.786	26.88
390.993	26.9
391.2	26.93
391.408	26.95
391.615	26.97
391.822	26.95
392.029	26.99
392.236	27.01
392.443	27.02
392.65	27.05
392.857	27.09
393.064	27.14
393.271	27.17
393.478	27.16
393.685	27.18
393.892	27.17
394.099	27.14
394.306	27.11
394.513	27.11
394.72	27.12
394.927	27.14
395.134	27.13
395.341	27.14
395.547	27.15
395.754	27.17
395.961	27.19
396.168	27.2
396.375	27.3
396.582	27.33
396.788	27.39
396.995	27.41
397.202	27.39
397.409	27.43
397.616	27.42
397.822	27.44
398.029	27.42
398.236	27.44
398.442	27.48
398.649	27.47
398.856	27.51
399.062	27.54
399.269	27.58
399.476	27.6
399.682	27.62
399.889	27.67
400.096	27.69
400.302	27.74
400.509	27.76
400.715	27.75
400.922	27.73
401.128	27.73
401.335	27.74
401.541	27.75
401.748	27.78
401.954	27.85
402.161	27.88
402.367	27.91
402.574	27.94
402.78	27.95
402.986	27.96
403.193	28
403.399	28.03
403.606	28.04
403.812	28.01
404.018	28.04
404.225	28
404.431	28
404.637	28
404.844	27.98
405.05	28.01
405.256	28.05
405.462	28.07
405.669	28.08
405.875	28.12
406.081	28.16
406.287	28.21
406.494	28.24
406.7	28.24
406.906	28.26
407.112	28.33
407.318	28.35
407.524	28.37
407.73	28.4
407.937	28.45
408.143	28.44
408.349	28.5
408.555	28.5
408.761	28.56
408.967	28.61
409.173	28.64
409.379	28.67
409.585	28.69
409.791	28.71
409.997	28.74
410.203	28.75
410.409	28.79
410.615	28.8
410.821	28.82
411.027	28.84
411.233	28.91
411.438	28.95
411.644	28.97
411.85	28.98
412.056	29.02
412.262	29.05
412.468	29.05
412.673	29.07
412.879	29.09
413.085	29.11
413.291	29.13
413.497	29.13
413.702	29.14
413.908	29.16
414.114	29.2
414.319	29.21
414.525	29.22
414.731	29.29
414.937	29.33
415.142	29.33
415.348	29.36
415.553	29.34
415.759	29.36
415.965	29.35
416.17	29.37
416.376	29.35
416.581	29.37
416.787	29.39
416.992	29.38
417.198	29.39
417.404	29.4
417.609	29.43
417.815	29.47
418.02	29.46
418.225	29.47
418.431	29.49
418.636	29.51
418.842	29.54
419.047	29.52
419.253	29.54
419.458	29.54
419.663	29.53
419.869	29.51
420.074	29.51
420.279	29.51
420.485	29.53
420.69	29.52
420.895	29.53
421.101	29.53
421.306	29.55
421.511	29.53
421.716	29.55
421.922	29.57
422.127	29.62
422.332	29.64
422.537	29.67
422.742	29.69
422.947	29.73
423.153	29.75
423.358	29.78
423.563	29.83
423.768	29.87
423.973	29.88
424.178	29.92
424.383	29.91
424.588	29.93
424.793	29.97
424.998	29.99
425.203	30
425.408	30.03
425.613	30.04
425.818	30.06
426.023	30.1
426.228	30.15
426.433	30.18
426.638	30.25
426.843	30.3
427.048	30.32
427.253	30.37
427.458	30.44
427.663	30.47
427.867	30.52
428.072	30.57
428.277	30.59
428.482	30.62
428.687	30.65
428.892	30.65
429.096	30.67
429.301	30.69
429.506	30.72
429.711	30.75
429.915	30.78
430.12	30.8
430.325	30.79
430.529	30.85
430.734	30.89
430.939	30.89
431.143	30.91
431.348	30.95
431.553	30.98
431.757	30.96
431.962	30.95
432.166	30.95
432.371	30.95
432.575	30.97
432.78	30.94
432.984	30.91
433.189	30.95
433.394	30.98
433.598	30.96
433.802	30.97
434.007	31
434.211	31.03
434.416	31.04
434.62	31.09
434.825	31.12
435.029	31.14
435.233	31.2
435.438	31.21
435.642	31.19
435.846	31.26
436.051	31.28
436.255	31.33
436.459	31.35
436.664	31.37
436.868	31.37
437.072	31.38
437.276	31.4
437.481	31.42
437.685	31.42
437.889	31.42
438.093	31.41
438.298	31.43
438.502	31.42
438.706	31.44
438.91	31.49
439.114	31.5
439.318	31.51
439.522	31.52
439.726	31.52
439.931	31.53
440.135	31.55
440.339	31.56
440.543	31.57
440.747	31.59
440.951	31.58
441.155	31.58
441.359	31.6
441.563	31.62
441.767	31.64
441.971	31.68
442.175	31.72
442.378	31.76
442.582	31.79
442.786	31.86
442.99	31.87
443.194	31.9
443.398	31.93
443.602	31.98
443.806	32.03
444.009	32.04
444.213	32.04
444.417	32.06
444.621	32.09
444.825	32.1
445.028	32.08
445.232	32.1
445.436	32.1
445.639	32.11
445.843	32.09
446.047	32.07
446.251	32.1
446.454	32.1
446.658	32.1
446.861	32.1
447.065	32.11
447.269	32.14
447.472	32.17
447.676	32.22
447.879	32.26
448.083	32.29
448.287	32.31
448.49	32.32
448.694	32.35
448.897	32.38
449.101	32.45
449.304	32.47
449.507	32.5
449.711	32.5
449.914	32.51
450.118	32.52
450.321	32.54
450.525	32.6
450.728	32.66
450.931	32.72
451.135	32.73
451.338	32.71
451.541	32.76
451.745	32.77
451.948	32.76
452.151	32.78
452.355	32.82
452.558	32.85
452.761	32.87
452.964	32.88
453.168	32.88
453.371	32.92
453.574	32.97
453.777	33.01
453.98	33.04
454.183	33.13
454.387	33.18
454.59	33.2
454.793	33.21
454.996	33.23
455.199	33.26
455.402	33.28
455.605	33.33
455.808	33.32
456.011	33.31
456.214	33.34
456.417	33.33
456.62	33.34
456.823	33.35
457.026	33.34
457.229	33.37
457.432	33.38
457.635	33.38
457.838	33.39
458.041	33.39
458.244	33.4
458.447	33.41
458.65	33.41
458.852	33.42
459.055	33.41
459.258	33.43
459.461	33.44
459.664	33.45
459.867	33.45
460.069	33.44
460.272	33.47
460.475	33.48
460.678	33.52
460.88	33.53
461.083	33.54
461.286	33.57
461.488	33.6
461.691	33.61
461.894	33.65
462.096	33.68
462.299	33.72
462.502	33.76
462.704	33.8
462.907	33.8
463.109	33.84
463.312	33.88
463.514	33.94
463.717	33.98
463.92	33.98
464.122	33.99
464.325	34.03
464.527	34.07
464.729	34.12
464.932	34.17
465.134	34.2
465.337	34.21
465.539	34.24
465.742	34.24
465.944	34.26
466.146	34.3
466.349	34.35
466.551	34.37
466.753	34.38
466.956	34.4
467.158	34.43
467.36	34.44
467.563	34.49
467.765	34.49
467.967	34.51
468.169	34.54
468.372	34.54
468.574	34.54
468.776	34.56
468.978	34.6
469.18	34.6
469.383	34.59
469.585	34.64
469.787	34.64
469.989	34.69
470.191	34.71
470.393	34.75
470.595	34.79
470.797	34.83
470.999	34.86
471.201	34.88
471.403	34.92
471.606	34.93
471.808	34.97
472.009	34.98
472.211	35.01
472.413	35.04
472.615	35.06
472.817	35.11
473.019	35.14
473.221	35.16
473.423	35.17
473.625	35.18
473.827	35.24
474.029	35.25
474.231	35.29
474.432	35.3
474.634	35.33
474.836	35.36
475.038	35.33
475.24	35.36
475.441	35.37
475.643	35.38
475.845	35.41
476.046	35.42
476.248	35.43
476.45	35.44
476.652	35.46
476.853	35.47
477.055	35.47
477.257	35.51
477.458	35.53
477.66	35.56
477.861	35.6
478.063	35.6
478.265	35.61
478.466	35.63
478.668	35.66
478.869	35.68
479.071	35.67
479.272	35.67
479.474	35.68
479.675	35.7
479.877	35.72
480.078	35.73
480.28	35.74
480.481	35.76
480.682	35.77
480.884	35.76
481.085	35.78
481.287	35.83
481.488	35.86
481.689	35.84
481.891	35.83
482.092	35.81
482.293	35.78
482.495	35.75
482.696	35.73
482.897	35.79
483.098	35.85
483.3	35.92
483.501	35.96
483.702	36.02
483.903	36.07
484.104	36.11
484.306	36.14
484.507	36.18
484.708	36.23
484.909	36.28
485.11	36.3
485.311	36.32
485.512	36.32
485.713	36.33
485.914	36.31
486.116	36.3
486.317	36.31
486.518	36.34
486.719	36.35
486.92	36.39
487.121	36.4
487.322	36.43
487.523	36.45
487.723	36.47
487.924	36.5
488.125	36.54
488.326	36.57
488.527	36.61
488.728	36.62
488.929	36.64
489.13	36.66
489.331	36.69
489.531	36.71
489.732	36.72
489.933	36.74
490.134	36.75
490.335	36.75
490.535	36.77
490.736	36.77
490.937	36.81
491.137	36.84
491.338	36.86
491.539	36.88
491.74	36.9
491.94	36.92
492.141	36.95
492.341	36.96
492.542	36.98
492.743	37
492.943	37.05
493.144	37.07
493.344	37.1
493.545	37.13
493.746	37.16
493.946	37.19
494.147	37.23
494.347	37.26
494.548	37.32
494.748	37.38
494.949	37.43
495.149	37.43
495.349	37.44
495.55	37.47
495.75	37.5
495.951	37.49
496.151	37.52
496.351	37.55
496.552	37.57
496.752	37.59
496.952	37.6
497.153	37.59
497.353	37.63
497.553	37.67
497.754	37.7
497.954	37.74
498.154	37.8
498.354	37.82
498.554	37.85
498.755	37.9
498.955	37.93
499.155	37.97
499.355	38.02
499.555	38.07
499.755	38.08
499.956	38.12
500.156	38.15
500.356	38.19
500.556	38.23
500.756	38.28
500.956	38.29
501.156	38.32
501.356	38.36
501.556	38.41
501.756	38.39
501.956	38.41
502.156	38.42
502.356	38.44
502.556	38.44
502.756	38.49
502.956	38.48
503.156	38.51
503.356	38.53
503.555	38.54
503.755	38.53
503.955	38.58
504.155	38.63
504.355	38.66
504.555	38.66
504.754	38.68
504.954	38.71
505.154	38.74
505.354	38.76
505.553	38.8
505.753	38.81
505.953	38.85
506.153	38.9
506.352	38.89
506.552	38.9
506.752	38.92
506.951	38.95
507.151	38.92
507.351	38.97
507.55	39.02
507.75	39.03
507.949	39.06
508.149	39.08
508.348	39.08
508.548	39.12
508.747	39.15
508.947	39.2
509.146	39.24
509.346	39.29
509.545	39.29
509.745	39.31
509.944	39.34
510.144	39.37
510.343	39.38
510.543	39.43
510.742	39.45
510.941	39.48
511.141	39.51
511.34	39.53
511.539	39.55
511.739	39.56
511.938	39.57
512.137	39.6
512.337	39.61
512.536	39.65
512.735	39.66
512.934	39.71
513.134	39.72
513.333	39.75
513.532	39.76
513.731	39.81
513.93	39.85
514.129	39.87
514.329	39.88
514.528	39.92
514.727	39.97
514.926	39.98
515.125	39.98
515.324	40.04
515.523	40.05
515.722	40.07
515.921	40.08
516.12	40.11
516.319	40.15
516.518	40.19
516.717	40.22
516.916	40.21
517.115	40.24
517.314	40.28
517.513	40.28
517.712	40.28
517.911	40.32
518.11	40.35
518.309	40.37
518.507	40.39
518.706	40.43
518.905	40.46
519.104	40.5
519.303	40.53
519.501	40.57
519.7	40.61
519.899	40.68
520.098	40.7
520.296	40.72
520.495	40.77
520.694	40.81
520.893	40.85
521.091	40.87
521.29	40.9
521.489	40.93
521.687	40.96
521.886	41
522.084	41.03
522.283	41.08
522.482	41.14
522.68	41.16
522.879	41.18
523.077	41.18
523.276	41.22
523.474	41.23
523.673	41.23
523.871	41.26
524.07	41.27
524.268	41.29
524.467	41.3
524.665	41.31
524.863	41.34
525.062	41.37
525.26	41.38
525.459	41.4
525.657	41.43
525.855	41.45
526.054	41.48
526.252	41.53
526.45	41.55
526.649	41.56
526.847	41.59
527.045	41.6
527.243	41.63
527.442	41.67
527.64	41.71
527.838	41.76
528.036	41.83
528.234	41.88
528.433	41.92
528.631	41.98
528.829	42.02
529.027	42.04
529.225	42.08
529.423	42.12
529.621	42.16
529.819	42.21
530.017	42.24
530.215	42.27
530.414	42.28
530.612	42.28
530.81	42.28
531.008	42.3
531.206	42.33
531.403	42.36
531.601	42.37
531.799	42.39
531.997	42.39
532.195	42.39
532.393	42.39
532.591	42.43
532.789	42.47
532.987	42.51
533.184	42.55
533.382	42.59
533.58	42.61
533.778	42.67
533.976	42.7
534.173	42.73
534.371	42.78
534.569	42.84
534.767	42.88
534.964	42.9
535.162	42.91
535.36	42.93
535.557	42.96
535.755	43.01
535.953	43
536.15	43.04
536.348	43.08
536.546	43.12
536.743	43.12
536.941	43.17
537.138	43.2
537.336	43.25
537.533	43.29
537.731	43.3
537.928	43.32
538.126	43.39
538.323	43.4
538.521	43.44
538.718	43.46
538.916	43.52
539.113	43.55
539.311	43.57
539.508	43.62
539.705	43.66
539.903	43.7
540.1	43.71
540.297	43.69
540.495	43.7
540.692	43.74
540.889	43.78
541.087	43.81
541.284	43.83
541.481	43.86
541.678	43.89
541.876	43.91
542.073	43.94
542.27	43.99
542.467	44.06
542.664	44.12
542.862	44.16
543.059	44.19
543.256	44.22
543.453	44.23
543.65	44.28
543.847	44.3
544.044	44.33
544.241	44.35
544.438	44.37
544.635	44.39
544.832	44.4
545.029	44.43
545.226	44.47
545.423	44.49
545.62	44.53
545.817	44.56
546.014	44.59
546.211	44.62
546.408	44.66
546.605	44.67
546.802	44.69
546.999	44.75
547.196	44.76
547.392	44.78
547.589	44.85
547.786	44.87
547.983	44.9
548.18	44.94
548.376	45
548.573	45.03
548.77	45.07
548.967	45.11
549.163	45.14
549.36	45.21
549.557	45.25
549.753	45.25
549.95	45.3
550.147	45.36
550.343	45.4
550.54	45.42
550.737	45.47
550.933	45.53
551.13	45.59
551.326	45.63
551.523	45.63
551.719	45.64
551.916	45.67
552.112	45.69
552.309	45.7
552.505	45.73
552.702	45.75
552.898	45.8
553.095	45.83
553.291	45.86
553.487	45.89
553.684	45.94
553.88	45.97
554.077	46.04
554.273	46.07
554.469	46.12
554.666	46.19
554.862	46.23
555.058	46.25
555.255	46.28
555.451	46.3
555.647	46.34
555.843	46.37
556.039	46.42
556.236	46.43
556.432	46.48
556.628	46.52
556.824	46.55
557.02	46.58
557.217	46.62
557.413	46.66
557.609	46.7
557.805	46.7
558.001	46.73
558.197	46.76
558.393	46.81
558.589	46.83
558.785	46.84
558.981	46.88
559.177	46.91
559.373	46.95
559.569	46.97
559.765	46.98
559.961	47.05
560.157	47.05
560.353	47.07
560.549	47.07
560.745	47.09
560.941	47.14
561.136	47.14
561.332	47.17
561.528	47.2
561.724	47.22
561.92	47.26
562.116	47.27
562.311	47.34
562.507	47.41
562.703	47.45
562.899	47.52
563.094	47.54
563.29	47.55
563.486	47.56
563.681	47.55
563.877	47.62
564.073	47.7
564.268	47.73
564.464	47.74
564.66	47.75
564.855	47.74
565.051	47.75
565.246	47.76
565.442	47.83
565.637	47.87
565.833	47.95
566.028	47.95
566.224	47.96
566.419	47.98
566.615	48.02
566.81	48.06
567.006	48.13
567.201	48.15
567.397	48.18
567.592	48.2
567.787	48.22
567.983	48.21
568.178	48.23
568.373	48.24
568.569	48.28
568.764	48.27
568.959	48.27
569.155	48.3
569.35	48.34
569.545	48.36
569.74	48.37
569.936	48.41
570.131	48.45
570.326	48.5
570.521	48.55
570.716	48.59
570.912	48.66
571.107	48.71
571.302	48.73
571.497	48.75
571.692	48.79
571.887	48.83
572.082	48.89
572.277	48.93
572.472	48.95
572.667	48.98
572.862	49.02
573.057	49.03
573.252	49.08
573.447	49.11
573.642	49.17
573.837	49.19
574.032	49.21
574.227	49.23
574.422	49.23
574.617	49.28
574.812	49.31
575.007	49.34
575.202	49.37
575.396	49.41
575.591	49.44
575.786	49.47
575.981	49.54
576.176	49.58
576.37	49.61
576.565	49.65
576.76	49.68
576.955	49.7
577.149	49.73
577.344	49.78
577.539	49.84
577.733	49.88
577.928	49.91
578.123	49.92
578.317	49.98
578.512	49.99
578.706	50.01
578.901	50.07
579.096	50.16
579.29	50.2
579.485	50.21
579.679	50.2
579.874	50.23
580.068	50.25
580.263	50.29
580.457	50.32
580.652	50.36
580.846	50.44
581.04	50.46
581.235	50.41
581.429	50.43
581.624	50.49
581.818	50.53
582.012	50.57
582.207	50.63
582.401	50.65
582.595	50.64
582.79	50.69
582.984	50.73
583.178	50.74
583.372	50.83
583.567	50.82
583.761	50.82
583.955	50.87
584.149	50.89
584.344	50.88
584.538	50.91
584.732	50.96
584.926	50.97
585.12	50.98
585.314	51.01
585.508	51.01
585.702	51.08
585.896	51.2
586.091	51.22
586.285	51.25
586.479	51.32
586.673	51.41
586.867	51.46
587.061	51.48
587.255	51.48
587.449	51.5
587.642	51.53
587.836	51.55
588.03	51.5
588.224	51.5
588.418	51.52
588.612	51.53
588.806	51.51
589	51.52
589.193	51.54
589.387	51.58
589.581	51.63
589.775	51.68
589.969	51.72
590.162	51.76
590.356	51.77
590.55	51.78
590.744	51.81
590.937	51.86
591.131	51.92
591.325	52
591.518	52.02
591.712	52.06
591.906	52.06
592.099	52.05
592.293	52.13
592.486	52.21
592.68	52.29
592.874	52.33
593.067	52.32
593.261	52.34
593.454	52.35
593.648	52.42
593.841	52.45
594.035	52.49
594.228	52.53
594.421	52.53
594.615	52.52
594.808	52.49
595.002	52.52
595.195	52.57
595.388	52.59
595.582	52.63
595.775	52.63
595.968	52.66
596.162	52.67
596.355	52.72
596.548	52.74
596.742	52.75
596.935	52.81
597.128	52.83
597.321	52.83
597.515	52.86
597.708	52.84
597.901	52.89
598.094	52.92
598.287	52.99
598.48	53.02
598.674	53.05
598.867	53.08
599.06	53.08
599.253	53.13
599.446	53.23
599.639	53.25
599.832	53.3
600.025	53.35
600.218	53.38
600.411	53.4
600.604	53.44
600.797	53.47
600.99	53.54
601.183	53.59
601.376	53.58
601.569	53.56
601.762	53.58
601.955	53.63
602.147	53.61
602.34	53.61
602.533	53.58
602.726	53.6
602.919	53.65
603.112	53.67
603.304	53.67
603.497	53.72
603.69	53.76
603.883	53.8
604.075	53.8
604.268	53.83
604.461	53.83
604.654	53.85
604.846	53.83
605.039	53.85
605.231	53.87
605.424	53.93
605.617	53.96
605.809	53.96
606.002	53.98
606.194	54.02
606.387	54.07
606.58	54.16
606.772	54.21
606.965	54.25
607.157	54.3
607.35	54.31
607.542	54.33
607.735	54.36
607.927	54.39
608.119	54.39
608.312	54.42
608.504	54.47
608.697	54.46
608.889	54.5
609.081	54.55
609.274	54.58
609.466	54.59
609.658	54.64
609.851	54.67
610.043	54.69
610.235	54.74
610.427	54.79
610.62	54.83
610.812	54.87
611.004	54.92
611.196	54.93
611.388	54.92
611.581	55
611.773	55.01
611.965	55.03
612.157	55.09
612.349	55.13
612.541	55.15
612.733	55.13
612.925	55.21
613.117	55.22
613.309	55.28
613.501	55.39
613.693	55.4
613.885	55.43
614.077	55.47
614.269	55.47
614.461	55.52
614.653	55.55
614.845	55.53
615.037	55.52
615.229	55.55
615.421	55.62
615.613	55.58
615.805	55.64
615.996	55.69
616.188	55.74
616.38	55.85
616.572	55.81
616.764	55.83
616.955	55.92
617.147	55.94
617.339	56.02
617.531	56.01
617.722	56.1
617.914	56.09
618.106	56.12
618.297	56.12
618.489	56.07
618.681	56.15
618.872	56.21
619.064	56.24
619.255	56.31
619.447	56.3
619.639	56.34
619.83	56.34
620.022	56.35
620.213	56.38
620.405	56.43
620.596	56.5
620.788	56.5
620.979	56.55
621.171	56.53
621.362	56.51
621.553	56.55
621.745	56.55
621.936	56.56
622.128	56.62
622.319	56.61
622.51	56.65
622.702	56.65
622.893	56.71
623.084	56.71
623.276	56.75
623.467	56.78
623.658	56.8
623.849	56.86
624.041	56.9
624.232	56.9
624.423	56.95
624.614	56.93
624.805	56.99
624.996	56.95
625.188	57
625.379	57.03
625.57	57.06
625.761	57.09
625.952	57.09
626.143	57.13
626.334	57.15
626.525	57.14
626.716	57.18
626.907	57.19
627.098	57.26
627.289	57.3
627.48	57.31
627.671	57.3
627.862	57.34
628.053	57.36
628.244	57.37
628.435	57.4
628.626	57.48
628.816	57.49
629.007	57.53
629.198	57.57
629.389	57.52
629.58	57.54
629.771	57.63
629.961	57.66
630.152	57.68
630.343	57.73
630.534	57.74
630.724	57.74
630.915	57.83
631.106	57.86
631.296	57.84
631.487	57.89
631.678	57.92
631.868	57.91
632.059	57.92
632.25	57.93
632.44	57.97
632.631	58.04
632.821	58.04
633.012	58.02
633.202	58
633.393	58.07
633.583	58.11
633.774	58.16
633.964	58.19
634.155	58.22
634.345	58.28
634.536	58.25
634.726	58.31
634.916	58.37
635.107	58.37
635.297	58.42
635.488	58.45
635.678	58.5
635.868	58.51
636.059	58.53
636.249	58.58
636.439	58.64
636.629	58.66
636.82	58.66
637.01	58.68
637.2	58.71
637.39	58.74
637.581	58.74
637.771	58.76
637.961	58.81
638.151	58.86
638.341	58.87
638.531	58.87
638.721	58.92
638.911	58.92
639.102	58.95
639.292	58.94
639.482	58.98
639.672	58.98
639.862	58.94
640.052	58.95
640.242	58.95
640.432	58.99
640.622	59.01
640.812	59.05
641.002	59.04
641.191	59.05
641.381	59.14
641.571	59.14
641.761	59.17
641.951	59.24
642.141	59.19
642.331	59.21
642.52	59.24
642.71	59.24
642.9	59.24
643.09	59.33
643.28	59.36
643.469	59.37
643.659	59.39
643.849	59.42
644.038	59.43
644.228	59.49
644.418	59.47
644.607	59.44
644.797	59.5
644.987	59.52
645.176	59.52
645.366	59.57
645.556	59.59
645.745	59.61
645.935	59.65
646.124	59.7
646.314	59.78
646.503	59.86
646.693	59.94
646.882	59.92
647.072	59.92
647.261	59.91
647.45	59.87
647.64	59.9
647.829	59.97
648.019	59.98
648.208	60.01
648.397	60.01
648.587	60.02
648.776	60
648.965	60.05
649.155	60.13
649.344	60.2
649.533	60.26
649.723	60.25
649.912	60.23
650.101	60.24
650.29	60.19
650.479	60.26
650.669	60.25
650.858	60.3
651.047	60.33
651.236	60.29
651.425	60.27
651.614	60.28
651.803	60.33
651.992	60.33
652.182	60.4
652.371	60.46
652.56	60.48
652.749	60.53
652.938	60.5
653.127	60.53
653.316	60.66
653.505	60.68
653.694	60.7
653.882	60.71
654.071	60.81
654.26	60.76
654.449	60.73
654.638	60.69
654.827	60.66
655.016	60.74
655.205	60.75
655.393	60.72
655.582	60.69
655.771	60.69
655.96	60.73
656.149	60.69
656.337	60.74
656.526	60.81
656.715	60.85
656.903	60.91
657.092	60.86
657.281	60.86
657.469	60.87
657.658	60.97
657.847	60.96
658.035	60.98
658.224	60.91
658.412	60.9
658.601	60.95
658.79	60.94
658.978	60.95
659.167	61.02
659.355	61.06
659.544	61.06
659.732	61.03
659.921	61.08
660.109	61.07
660.297	61.17
660.486	61.24
660.674	61.24
660.863	61.33
661.051	61.32
661.239	61.33
661.428	61.34
661.616	61.37
661.804	61.42
661.993	61.38
662.181	61.43
662.369	61.48
662.557	61.51
662.746	61.56
662.934	61.54
663.122	61.59
663.31	61.62
663.498	61.63
663.687	61.65
663.875	61.71
664.063	61.78
664.251	61.79
664.439	61.81
664.627	61.83
664.815	61.85
665.003	61.84
665.191	61.86
665.379	61.89
665.567	61.91
665.755	61.95
665.943	61.9
666.131	61.91
666.319	61.9
666.507	61.88
666.695	61.83
666.883	61.81
667.071	61.83
667.259	61.83
667.447	61.82
667.635	61.88
667.823	61.96
668.01	62.02
668.198	62.07
668.386	62.19
668.574	62.25
668.761	62.31
668.949	62.37
669.137	62.44
669.325	62.43
669.512	62.44
669.7	62.45
669.888	62.4
670.075	62.41
670.263	62.45
670.451	62.38
670.638	62.39
670.826	62.36
671.013	62.35
671.201	62.4
671.389	62.41
671.576	62.4
671.764	62.45
671.951	62.52
672.139	62.6
672.326	62.6
672.514	62.63
672.701	62.64
672.889	62.73
673.076	62.79
673.263	62.73
673.451	62.79
673.638	62.87
673.825	62.88
674.013	62.9
674.2	62.82
674.387	62.83
674.575	62.84
674.762	62.87
674.949	62.87
675.137	62.8
675.324	62.81
675.511	62.85
675.698	62.84
675.885	62.81
676.073	62.77
676.26	62.84
676.447	62.85
676.634	62.88
676.821	62.83
677.008	62.84
677.195	62.86
677.383	62.91
677.57	62.91
677.757	62.92
677.944	62.93
678.131	62.93
678.318	62.88
678.505	62.91
678.692	62.95
678.879	62.96
679.066	62.94
679.253	62.97
679.439	62.99
679.626	62.99
679.813	63.02
680	63.02
680.187	63.05
680.374	63.07
680.561	63.09
680.747	63.1
680.934	63.13
681.121	63.17
681.308	63.24
681.494	63.22
681.681	63.27
681.868	63.31
682.055	63.37
682.241	63.42
682.428	63.51
682.615	63.57
682.801	63.57
682.988	63.61
683.175	63.65
683.361	63.62
683.548	63.68
683.734	63.68
683.921	63.69
684.107	63.76
684.294	63.8
684.48	63.83
684.667	63.81
684.853	63.88
685.04	63.87
685.226	63.9
685.413	63.91
685.599	63.93
685.786	63.96
685.972	63.99
686.158	63.94
686.345	63.94
686.531	63.97
686.717	63.95
686.904	63.97
687.09	64.07
687.276	64.04
687.463	64.03
687.649	64.08
687.835	64.05
688.021	64.06
688.208	64.08
688.394	64.06
688.58	64.01
688.766	64.06
688.952	64.03
689.138	63.93
689.324	63.97
689.511	64.08
689.697	64.02
689.883	64.11
690.069	64.12
690.255	64.15
690.441	64.19
690.627	64.23
690.813	64.19
690.999	64.24
691.185	64.39
691.371	64.38
691.557	64.42
691.743	64.5
691.929	64.44
692.115	64.47
692.3	64.47
692.486	64.58
692.672	64.62
692.858	64.77
693.044	64.75
693.23	64.73
693.415	64.77
693.601	64.77
693.787	64.73
693.973	64.72
694.158	64.75
694.344	64.82
694.53	64.72
694.715	64.65
694.901	64.54
695.087	64.55
695.272	64.53
695.458	64.54
695.644	64.55
695.829	64.55
696.015	64.62
696.2	64.55
696.386	64.48
696.571	64.52
696.757	64.6
696.943	64.69
697.128	64.64
697.313	64.56
697.499	64.55
697.684	64.52
697.87	64.47
698.055	64.47
698.241	64.5
698.426	64.51
698.611	64.5
698.797	64.53
698.982	64.49
699.167	64.6
699.353	64.69
699.538	64.68
699.723	64.77
699.909	64.81
700.094	64.86
700.279	64.91
700.464	64.92
700.649	64.98
700.835	64.98
701.02	65.03
701.205	65.04
701.39	65.05
701.575	65.07
701.76	64.99
701.945	65.03
702.13	64.98
702.316	64.95
702.501	64.98
702.686	64.96
702.871	65.01
703.056	65.02
703.241	65.05
703.426	65.07
703.611	65.16
703.796	65.28
703.98	65.31
704.165	65.36
704.35	65.47
704.535	65.46
704.72	65.53
704.905	65.46
705.09	65.58
705.275	65.56
705.459	65.61
705.644	65.54
705.829	65.45
706.014	65.54
706.198	65.57
706.383	65.59
706.568	65.68
706.753	65.64
706.937	65.69
707.122	65.62
707.307	65.56
707.491	65.56
707.676	65.61
707.86	65.75
708.045	65.71
708.23	65.78
708.414	65.7
708.599	65.61
708.783	65.6
708.968	65.66
709.152	65.7
709.337	65.78
709.521	65.82
709.706	65.93
709.89	65.93
710.075	65.85
710.259	65.9
710.443	65.94
710.628	66.03
710.812	66.11
710.997	66.06
711.181	66.1
711.365	66.08
711.55	66.02
711.734	65.96
711.918	65.93
712.102	66.04
712.287	66.01
712.471	66.07
712.655	66.07
712.839	66.1
713.023	66.12
713.208	66.07
713.392	66.08
713.576	66.16
713.76	66.23
713.944	66.26
714.128	66.34
714.312	66.37
714.496	66.32
714.68	66.3
714.864	66.35
715.048	66.45
715.232	66.47
715.416	66.54
715.6	66.46
715.784	66.37
715.968	66.29
716.152	66.22
716.336	66.19
716.52	66.28
716.704	66.35
716.888	66.34
717.072	66.34
717.256	66.35
717.439	66.33
717.623	66.38
717.807	66.44
717.991	66.52
718.174	66.59
718.358	66.62
718.542	66.56
718.726	66.56
718.909	66.55
719.093	66.51
719.277	66.51
719.46	66.58
719.644	66.64
719.828	66.63
720.011	66.64
720.195	66.59
720.378	66.47
720.562	66.56
720.746	66.62
720.929	66.57
721.113	66.66
721.296	66.68
721.48	66.7
721.663	66.72
721.846	66.75
722.03	66.76
722.213	66.81
722.397	66.96
722.58	66.95
722.764	66.91
722.947	67.01
723.13	66.95
723.314	67
723.497	66.87
723.68	66.85
723.863	66.89
724.047	66.91
724.23	66.92
724.413	66.89
724.596	66.91
724.78	66.89
724.963	66.8
725.146	66.76
725.329	66.71
725.512	66.72
725.695	66.74
725.879	66.77
726.062	66.75
726.245	66.84
726.428	66.91
726.611	66.83
726.794	66.8
726.977	66.86
727.16	66.95
727.343	67.1
727.526	67.25
727.709	67.28
727.892	67.27
728.075	67.3
728.258	67.31
728.441	67.33
728.624	67.42
728.806	67.42
728.989	67.46
729.172	67.44
729.355	67.32
729.538	67.28
729.721	67.28
729.903	67.23
730.086	67.23
730.269	67.14
730.452	67.19
730.634	67.17
730.817	67.35
731	67.33
731.182	67.34
731.365	67.37
731.548	67.35
731.73	67.37
731.913	67.4
732.095	67.45
732.278	67.53
732.461	67.5
732.643	67.55
732.826	67.53
733.008	67.51
733.191	67.55
733.373	67.62
733.556	67.69
733.738	67.73
733.921	67.69
734.103	67.71
734.285	67.73
734.468	67.66
734.65	67.65
734.833	67.64
735.015	67.71
735.197	67.69
735.38	67.74
735.562	67.75
735.744	67.73
735.926	67.77
736.109	67.75
736.291	67.73
736.473	67.8
736.655	67.86
736.838	67.96
737.02	67.98
737.202	67.97
737.384	67.85
737.566	67.83
737.748	67.89
737.93	67.98
738.113	68.04
738.295	68.11
738.477	68.05
738.659	68.1
738.841	68.05
739.023	68.03
739.205	68.12
739.387	68.15
739.569	68.2
739.751	68.13
739.933	68.12
740.114	68.14
740.296	68.08
740.478	68.2
740.66	68.32
740.842	68.31
741.024	68.39
741.206	68.37
741.387	68.47
741.569	68.45
741.751	68.46
741.933	68.39
742.115	68.41
742.296	68.46
742.478	68.49
742.66	68.37
742.841	68.43
743.023	68.45
743.205	68.52
743.386	68.46
743.568	68.45
743.75	68.58
743.931	68.73
744.113	68.64
744.294	68.73
744.476	68.65
744.657	68.72
744.839	68.74
745.02	68.62
745.202	68.53
745.383	68.62
745.565	68.73
745.746	68.57
745.928	68.55
746.109	68.77
746.291	68.72
746.472	68.82
746.653	68.65
746.835	68.7
747.016	68.78
747.197	68.88
747.379	68.77
747.56	68.67
747.741	68.66
747.922	68.66
748.104	68.65
748.285	68.74
748.466	68.71
748.647	68.82
748.828	68.74
749.01	68.88
749.191	68.92
749.372	68.97
749.553	69.13
749.734	69.31
749.915	69.43
750.096	69.43
750.277	69.29
750.458	69.36
750.639	69.34
750.82	69.45
751.001	69.22
751.182	69.25
751.363	69.3
751.544	69.32
751.725	69.33
751.906	69.26
752.087	69.17
752.268	69.36
752.449	69.22
752.63	69.22
752.81	69.25
752.991	69.38
753.172	69.31
753.353	69.31
753.534	69.23
753.714	69.29
753.895	69.25
754.076	69.25
754.256	69.22
754.437	69.34
754.618	69.4
754.798	69.28
754.979	69.37
755.16	69.38
755.34	69.46
755.521	69.55
755.702	69.45
755.882	69.57
756.063	69.65
756.243	69.64
756.424	69.62
756.604	69.59
756.785	69.54
756.965	69.53
757.146	69.63
757.326	69.57
757.507	69.48
757.687	69.51
757.867	69.48
758.048	69.61
758.228	69.59
758.408	69.58
758.589	69.69
758.769	69.78
758.949	69.78
759.13	69.88
759.31	69.95
759.49	69.94
759.671	69.97
759.851	70.05
760.031	69.81
760.211	69.76
760.391	69.76
760.572	69.66
760.752	69.68
760.932	69.71
761.112	69.55
761.292	69.57
761.472	69.74
761.652	69.67
761.832	69.64
762.012	69.76
762.192	69.71
762.372	69.73
762.552	69.5
762.732	69.41
762.912	69.34
763.092	69.27
763.272	69.16
763.452	69.07
763.632	69.15
763.812	69.12
763.992	69.07
764.172	69.11
764.351	69.12
764.531	69.29
764.711	69.31
764.891	69.37
765.071	69.45
765.25	69.54
765.43	69.51
765.61	69.52
765.79	69.52
765.969	69.49
766.149	69.51
766.329	69.59
766.508	69.63
766.688	69.73
766.867	69.7
767.047	69.78
767.227	69.76
767.406	69.9
767.586	69.91
767.765	69.95
767.945	70.19
768.124	70.28
768.304	70.19
768.483	70.21
768.663	70.3
768.842	70.25
769.022	70.11
769.201	70.1
769.38	70.15
769.56	70.27
769.739	70.4
769.919	70.23
770.098	70.25
770.277	70.34
770.457	70.31
770.636	70.28
770.815	70.38
770.994	70.61
771.174	70.65
771.353	70.66
771.532	70.54
771.711	70.54
771.89	70.44
772.07	70.56
772.249	70.48
772.428	70.61
772.607	70.62
772.786	70.58
772.965	70.35
773.144	70.39
773.323	70.28
773.502	70.3
773.681	70.15
773.86	70.37
774.039	70.3
774.218	70.41
774.397	70.24
774.576	70.24
774.755	70.37
774.934	70.55
775.113	70.7
775.292	70.74
775.471	70.73
775.65	70.88
775.828	70.87
776.007	70.72
776.186	70.72
776.365	70.79
776.544	70.69
776.722	70.7
776.901	70.77
777.08	70.64
777.258	70.67
777.437	70.65
777.616	70.6
777.795	70.6
777.973	70.72
778.152	70.6
778.33	70.65
778.509	70.8
778.688	70.62
778.866	70.41
779.045	70.29
779.223	70.29
779.402	70.29
779.58	70.29
779.759	70.25
779.937	70.27
780.116	70.44
780.294	70.36
780.473	70.38
780.651	70.47
780.829	70.58
781.008	70.68
781.186	70.7
781.364	70.78
781.543	70.84
781.721	71
781.899	70.93
782.078	70.96
782.256	71.24
782.434	71.25
782.612	71.22
782.791	71.17
782.969	71.24
783.147	71.3
783.325	71.34
783.503	71.48
783.681	71.45
783.86	71.58
784.038	71.62
784.216	71.33
784.394	71.22
784.572	71.34
784.75	71.42
784.928	71.43
785.106	71.31
785.284	71.25
785.462	71.25
785.64	71.26
785.818	71.32
785.996	71.38
786.174	71.43
786.352	71.5
786.53	71.36
786.707	71.34
786.885	71.27
787.063	71.42
787.241	71.42
787.419	71.22
787.597	71.3
787.774	71.21
787.952	71.19
788.13	71.16
788.308	71.11
788.485	71.16
788.663	71.22
788.841	71.41
789.018	71.39
789.196	71.56
789.374	71.6
789.551	71.56
789.729	71.64
789.906	71.46
790.084	71.56
790.262	71.48
790.439	71.61
790.617	71.72
790.794	71.51
790.972	71.55
791.149	71.41
791.327	71.45
791.504	71.38
791.681	71.37
791.859	71.49
792.036	71.48
792.214	71.71
792.391	71.62
792.568	71.65
792.746	71.89
792.923	71.92
793.1	71.96
793.278	71.99
793.455	72.04
793.632	72.13
793.809	72.08
793.987	71.94
794.164	71.95
794.341	71.82
794.518	71.82
794.695	71.72
794.872	71.64
795.05	71.67
795.227	71.74
795.404	71.79
795.581	71.64
795.758	71.73
795.935	71.92
796.112	71.93
796.289	72.06
796.466	71.91
796.643	71.91
796.82	71.78
796.997	71.83
797.174	71.7
797.351	71.64
797.528	71.82
797.704	71.78
797.881	71.79
798.058	71.86
798.235	72.02
798.412	72.12
798.589	72.05
798.765	72.3
798.942	72.22
799.119	72.29
799.296	72.19
799.472	72.24
799.649	72.31
799.826	72.33
800.003	72.23
800.179	72.13
800.356	72.23
800.533	72.44
800.709	72.39
800.886	72.47
801.062	72.52
801.239	72.77
801.415	72.68
801.592	72.68
801.769	72.73
801.945	72.69
802.122	72.65
802.298	72.62
802.474	72.57
802.651	72.52
802.827	72.67
803.004	72.81
803.18	72.58
803.356	72.72
803.533	72.61
803.709	72.68
803.886	72.89
804.062	72.9
804.238	72.87
804.414	72.92
804.591	73.06
804.767	72.72
804.943	72.55
805.119	72.73
805.296	72.61
805.472	72.69
805.648	72.67
805.824	72.63
806	72.64
806.176	72.47
806.352	72.38
806.529	72.39
806.705	72.54
806.881	72.63
807.057	72.54
807.233	72.51
807.409	72.65
807.585	72.67
807.761	72.55
807.937	72.71
808.113	72.86
808.289	73.12
808.464	73.21
808.64	73.19
808.816	73.32
808.992	73.54
809.168	73.36
809.344	73.27
809.52	73.25
809.695	73.45
809.871	73.4
810.047	73.41
810.223	73.05
810.398	72.84
810.574	72.88
810.75	72.71
810.926	72.64
811.101	72.94
811.277	72.85
811.453	72.81
811.628	72.97
811.804	73.08
811.979	73.1
812.155	73.16
812.331	73.08
812.506	73.29
812.682	73.41
812.857	73.41
813.033	73.18
813.208	73.2
813.384	73.35
813.559	73.27
813.734	73.34
813.91	73.48
814.085	73.66
814.261	73.95
814.436	73.83
814.611	73.78
814.787	73.76
814.962	74.21
815.137	74.29
815.313	74.15
815.488	73.85
815.663	73.75
815.838	73.59
816.014	73.55
816.189	73.51
816.364	73.77
816.539	73.69
816.714	73.64
816.89	73.35
817.065	73.46
817.24	73.59
817.415	73.81
817.59	73.62
817.765	73.57
817.94	73.52
818.115	73.36
818.29	73.17
818.465	73.23
818.64	73.37
818.815	73.19
818.99	73.05
819.165	72.77
819.34	72.68
819.515	72.68
819.69	72.71
819.865	72.59
820.039	72.69
820.214	72.6
820.389	72.58
820.564	72.39
820.739	72.48
820.913	72.53
821.088	72.45
821.263	72.37
821.438	72.21
821.612	71.98
821.787	71.87
821.962	71.73
822.136	71.61
822.311	71.4
822.486	71.38
822.66	71.34
822.835	71.35
823.009	71.37
823.184	71.43
823.359	71.5
823.533	71.6
823.708	71.74
823.882	71.89
824.057	71.98
824.231	72.18
824.405	72.33
824.58	72.55
824.754	72.72
824.929	72.94
825.103	73.05
825.277	73.13
825.452	73.26
825.626	73.25
825.801	73.18
825.975	73.28
826.149	73.29
826.323	73.28
826.498	73.09
826.672	72.97
826.846	72.77
827.02	72.63
827.195	72.64
827.369	72.5
827.543	72.41
827.717	72.38
827.891	72.46
828.065	72.47
828.239	72.57
828.413	72.7
828.587	72.74
828.762	72.94
828.936	73.13
829.11	73.27
829.284	73.41
829.458	73.63
829.632	73.85
829.805	73.8
829.979	74
830.153	74.1
830.327	74.19
830.501	74.31
830.675	74.35
830.849	74.33
831.023	74.19
831.196	74.27
831.37	74.25
831.544	74.25
831.718	74.39
831.892	74.32
832.065	74.2
832.239	74.23
832.413	74.19
832.586	73.92
832.76	73.93
832.934	73.87
833.107	73.74
833.281	73.64
833.455	73.46
833.628	73.16
833.802	73.07
833.975	72.95
834.149	72.98
834.322	72.9
834.496	72.96
834.67	72.98
834.843	73.06
835.016	73.1
835.19	73.12
835.363	73.22
835.537	73.37
835.71	73.51
835.884	73.68
836.057	73.74
836.23	73.94
836.404	74.12
836.577	74.16
836.75	74.36
836.923	74.65
837.097	74.85
837.27	74.86
837.443	75.06
837.616	75
837.79	75.03
837.963	75.03
838.136	74.85
838.309	74.84
838.482	74.82
838.655	74.64
838.829	74.47
839.002	74.57
839.175	74.58
839.348	74.69
839.521	74.8
839.694	74.78
839.867	74.72
840.04	74.8
840.213	74.58
840.386	74.62
840.559	74.85
840.732	74.7
840.905	74.64
841.077	74.51
841.25	74.45
841.423	74.56
841.596	74.36
841.769	74.5
841.942	74.61
842.114	74.89
842.287	74.87
842.46	74.66
842.633	74.83
842.806	74.88
842.978	75.15
843.151	75.25
843.324	75.28
843.496	75.72
843.669	75.48
843.842	75.6
844.014	75.66
844.187	76.07
844.359	76.15
844.532	76.08
844.704	76.04
844.877	76.18
845.05	76.33
845.222	76.55
845.395	76.5
845.567	76.73
845.739	76.5
845.912	76.35
846.084	76.08
846.257	76.56
846.429	77.05
846.601	76.65
846.774	76.67
846.946	76.92
847.119	76.88
847.291	76.77
847.463	76.66
847.635	77.04
847.808	77.34
847.98	77.5
848.152	77.84
848.324	78.03
848.497	78.59
848.669	78.78
848.841	78.79
849.013	78.51
849.185	78.37
849.357	78.83
849.529	78.58
849.701	78.56
849.873	78.46
850.046	77.84
850.218	77.63
850.39	77.98
850.562	78.04
850.734	77.65
850.906	77.31
851.077	77.16
851.249	77.32
851.421	77.83
851.593	77.5
851.765	77.74
851.937	77.83
852.109	77.83
852.281	77.09
852.452	77.22
852.624	77.14
852.796	78.18
852.968	78.83
853.14	78.63
853.311	78.32
853.483	78.48
853.655	78.37
853.826	78.38
853.998	78.12
854.17	78.52
854.341	78.19
854.513	78.72
854.685	78.26
854.856	78.2
855.028	78.54
855.199	78.64
855.371	78.14
855.542	78.58
855.714	78.72
855.885	78.7
856.057	78.51
856.228	78.62
856.4	78.2
856.571	78.65
856.743	77.97
856.914	77.33
857.085	76.91
857.257	77.46
857.428	76.68
857.599	76.46
857.771	76.47
857.942	76.14
858.113	76.42
858.284	76.78
858.456	76.49
858.627	77.39
858.798	77.33
858.969	77.97
859.141	77.71
859.312	78.35
859.483	78.61
859.654	78.78
859.825	79.22
859.996	79.18
860.167	79.05
860.338	78.95
860.509	78.64
860.68	79.37
860.851	79.3
861.022	79.8
861.193	79.47
861.364	79.26
861.535	79.72
861.706	80.11
861.877	80.18
862.048	79.79
862.219	80.37
862.39	80.32
862.561	80.24
862.731	80.26
862.902	80.27
863.073	80.17
863.244	80.74
863.415	80.49
863.585	80.2
863.756	79.86
863.927	79.64
864.097	79.43
864.268	79.92
864.439	79.69
864.609	80.1
864.78	79.67
864.951	79.78
865.121	79.88
865.292	79.18
865.463	79.06
865.633	79.44
865.804	80.32
865.974	80
866.145	79.48
866.315	79.81
866.486	79.11
866.656	79.3
866.826	79.5
866.997	78.7
867.167	79.64
867.338	79.98
867.508	79.57
867.678	79.04
867.849	79.36
868.019	79.77
868.189	78.75
868.36	79.36
868.53	80.05
868.7	80.24
868.87	80.3
869.041	80.24
869.211	80.36
869.381	80.62
869.551	81
869.721	81.03
869.891	80.49
870.062	81.2
870.232	81.1
870.402	80.55
870.572	79.6
870.742	79.83
870.912	79.62
871.082	79.55
871.252	79.85
871.422	79.44
871.592	79.85
871.762	79.47
871.932	78.93
872.102	78.74
872.272	79.05
872.442	79.52
872.611	79.09
872.781	79.11
872.951	78.41
873.121	77.42
873.291	77.77
873.461	77.54
873.63	77.99
873.8	79.18
873.97	79.06
874.14	79.33
874.309	79.25
874.479	79.75
874.649	79.59
874.818	79.98
874.988	80.59
875.158	80.43
875.327	79.73
875.497	79.67
875.666	79.1
875.836	79.04
876.005	79.03
876.175	79.56
876.344	79.7
876.514	80.13
876.683	80.38
876.853	80.19
877.022	79.76
877.192	80.56
877.361	80.76
877.531	80.84
877.7	81.11
877.869	80.89
878.039	81.17
878.208	81.46
878.377	80.97
878.547	81.42
878.716	81.36
878.885	81.48
879.054	81.41
879.224	80.77
879.393	80.98
879.562	80.37
879.731	79.71
879.9	79.33
880.069	78.88
880.239	79.03
880.408	77.78
880.577	77.87
880.746	77.57
880.915	77.03
881.084	77.17
881.253	76.49
881.422	76.13
881.591	75.84
881.76	75.6
881.929	75.36
882.098	74.93
882.267	75.03
882.436	74.92
882.605	75.06
882.773	75.07
882.942	75.09
883.111	75.13
883.28	75.24
883.449	75.42
883.618	75.48
883.786	75.62
883.955	75.77
884.124	75.94
884.293	76.07
884.461	76.12
884.63	76.3
884.799	76.46
884.967	76.72
885.136	76.82
885.305	76.86
885.473	76.86
885.642	76.98
885.81	77.38
885.979	77.29
886.148	77.41
886.316	77.8
886.485	77.75
886.653	77.77
886.822	77.85
886.99	78.04
887.158	77.93
887.327	78.55
887.495	78.5
887.664	78.26
887.832	78.65
888	78.86
888.169	78.87
888.337	79.46
888.505	79.9
888.674	80.08
888.842	80.67
889.01	81.52
889.178	81.44
889.347	81.8
889.515	82.06
889.683	82.75
889.851	83.14
