Data from Bird_2_Reflection_3.txt Node
Date: Fri Jan 31 09:38:31 MST 2020
User: Lab User
Spectrometer: USB4J01344
Trigger mode: 0
Integration Time (sec): 1.047400E-1
Scans to average: 20
Electric dark correction enabled: false
Nonlinearity correction enabled: false
Boxcar width: 5
XAxis mode: Wavelengths
Number of Pixels in Spectrum: 3648
>>>>>Begin Spectral Data<<<<<
177.498	-202.91
177.717	-192.94
177.936	-283.85
178.155	-228.44
178.374	-260.38
178.593	-305.65
178.812	-599.02
179.031	-902.88
179.251	-1053.12
179.47	-1550.56
179.689	-1744.87
179.908	8816.67
180.127	413.51
180.346	266.73
180.565	202.56
180.784	169.96
181.003	145.82
181.222	128.31
181.441	111.3
181.66	101.03
181.879	96.94
182.098	92.55
182.316	91.44
182.535	96.74
182.754	100.97
182.973	98.05
183.192	96.91
183.411	91.79
183.63	95.56
183.849	98.08
184.067	93.28
184.286	90.02
184.505	87.03
184.724	83.18
184.943	78.17
185.161	77.82
185.38	80.14
185.599	81.09
185.818	82.15
186.036	83.55
186.255	83.29
186.474	82.84
186.693	82.58
186.911	81.59
187.13	82.34
187.349	83.12
187.567	88.46
187.786	83.93
188.004	82.84
188.223	88.57
188.442	88.17
188.66	91.84
188.879	94.82
189.097	95.46
189.316	101.49
189.535	100.12
189.753	104.05
189.972	97.13
190.19	101.12
190.409	105.04
190.627	103.99
190.846	103.46
191.064	102.18
191.283	100.77
191.501	103.05
191.719	99.3
191.938	101.43
192.156	97.71
192.375	98.89
192.593	96.22
192.811	94.34
193.03	94.98
193.248	95.33
193.467	94.99
193.685	95.71
193.903	90.55
194.121	91.85
194.34	90.4
194.558	88.91
194.776	91.52
194.995	95.98
195.213	92.73
195.431	88.98
195.649	86.97
195.868	82.94
196.086	81.67
196.304	84.23
196.522	80.36
196.74	78.93
196.958	77.52
197.177	77.13
197.395	72.53
197.613	72.89
197.831	69.33
198.049	69.33
198.267	71.49
198.485	69.89
198.703	69.2
198.921	71.6
199.139	74.13
199.358	77.29
199.576	78.23
199.794	77.93
200.012	76.45
200.23	82.48
200.448	83.15
200.666	81.35
200.883	81.22
201.101	83.68
201.319	83.14
201.537	83.85
201.755	83.87
201.973	80.24
202.191	81.82
202.409	86.4
202.627	81.04
202.845	77.94
203.062	76.45
203.28	77.77
203.498	75.91
203.716	74.52
203.934	72.28
204.151	67.01
204.369	63.93
204.587	64.98
204.805	61.39
205.022	63.12
205.24	61.21
205.458	66.42
205.676	67.74
205.893	66.93
206.111	67.13
206.329	67.46
206.546	69.34
206.764	71.28
206.982	72.08
207.199	77.63
207.417	76.65
207.634	78.26
207.852	76.48
208.07	74.91
208.287	77.14
208.505	77.21
208.722	78.35
208.94	83
209.157	84.68
209.375	81.4
209.592	78.1
209.81	78.65
210.027	81.94
210.245	78.83
210.462	77.96
210.68	80.39
210.897	81.62
211.115	82.14
211.332	79.3
211.549	77.17
211.767	81.32
211.984	79.9
212.201	78.76
212.419	77.73
212.636	80.73
212.854	81.54
213.071	78.78
213.288	77.32
213.505	75.77
213.723	73.8
213.94	76.57
214.157	72.48
214.374	72.49
214.592	72.8
214.809	71.99
215.026	72.28
215.243	73.11
215.461	72.94
215.678	75.38
215.895	74.48
216.112	76.02
216.329	73.85
216.546	74.68
216.763	77.72
216.981	75.92
217.198	77.47
217.415	75.5
217.632	72.32
217.849	71.57
218.066	69.37
218.283	68.69
218.5	65.34
218.717	63.31
218.934	67.85
219.151	66.13
219.368	65.55
219.585	62.68
219.802	65.07
220.019	66.43
220.236	64.18
220.453	61.98
220.67	61.37
220.887	63.52
221.103	63.81
221.32	58.95
221.537	61.38
221.754	63.94
221.971	66.49
222.188	63.62
222.405	64.49
222.621	64.66
222.838	65.42
223.055	65.96
223.272	64.37
223.488	64.11
223.705	63.31
223.922	62.96
224.139	61.14
224.355	58.08
224.572	58.29
224.789	56.53
225.005	54.52
225.222	54.23
225.439	54.84
225.655	57.13
225.872	56.05
226.089	56.36
226.305	53.09
226.522	50.25
226.738	49.5
226.955	45.21
227.172	42.93
227.388	42.06
227.605	40.43
227.821	36.4
228.038	32.25
228.254	32.83
228.471	31.52
228.687	31.49
228.904	32.09
229.12	32.06
229.337	32.93
229.553	32.76
229.77	32.05
229.986	31.44
230.202	31.97
230.419	34.41
230.635	33.48
230.851	34.06
231.068	33.5
231.284	32.73
231.501	31.69
231.717	30.44
231.933	31.68
232.149	31.47
232.366	32.65
232.582	32.03
232.798	30.81
233.015	29.89
233.231	28.48
233.447	29.07
233.663	28.19
233.879	28.07
234.096	28.33
234.312	27.78
234.528	27.64
234.744	26.51
234.96	26.7
235.176	26.37
235.393	26.23
235.609	25.92
235.825	24.35
236.041	24.47
236.257	24.06
236.473	24.38
236.689	24.23
236.905	23.79
237.121	23.44
237.337	23.44
237.553	24.05
237.769	24.07
237.985	25.1
238.201	25.26
238.417	25.17
238.633	24.5
238.849	23.63
239.065	22.03
239.281	21.37
239.497	20.43
239.713	19.7
239.928	18.97
240.144	18.36
240.36	17.36
240.576	16.83
240.792	16.34
241.008	16.42
241.223	15.83
241.439	15.76
241.655	15.56
241.871	15.4
242.087	15.31
242.302	15.08
242.518	15.03
242.734	14.89
242.95	14.91
243.165	14.96
243.381	14.84
243.597	15.08
243.812	15.27
244.028	15.4
244.244	15.61
244.459	15.65
244.675	15.51
244.89	15.64
245.106	15.45
245.322	14.84
245.537	14.38
245.753	13.98
245.968	13.6
246.184	13.36
246.399	13.14
246.615	12.98
246.83	12.87
247.046	12.86
247.261	12.72
247.477	12.62
247.692	12.71
247.908	12.72
248.123	12.7
248.339	12.75
248.554	12.8
248.769	13.08
248.985	13.18
249.2	13.3
249.416	13.39
249.631	13.59
249.846	13.8
250.062	13.89
250.277	13.91
250.492	14.04
250.707	14.15
250.923	13.81
251.138	13.47
251.353	13.48
251.569	13.36
251.784	13.24
251.999	13.24
252.214	13.39
252.429	13.33
252.645	13.42
252.86	13.49
253.075	13.45
253.29	13.71
253.505	13.81
253.72	13.91
253.935	14.22
254.151	14.46
254.366	14.53
254.581	14.38
254.796	14.59
255.011	14.7
255.226	14.49
255.441	14.72
255.656	14.57
255.871	14.57
256.086	14.47
256.301	14.27
256.516	14.12
256.731	13.88
256.946	13.9
257.161	13.83
257.376	13.67
257.591	13.57
257.806	13.32
258.02	13.19
258.235	12.91
258.45	12.72
258.665	12.44
258.88	12.22
259.095	12.03
259.31	11.85
259.524	11.74
259.739	11.66
259.954	11.61
260.169	11.58
260.383	11.59
260.598	11.61
260.813	11.54
261.028	11.63
261.242	11.69
261.457	11.82
261.672	12
261.886	12.1
262.101	12.25
262.316	12.17
262.53	12.2
262.745	12.21
262.96	12.22
263.174	12.42
263.389	12.39
263.603	12.43
263.818	12.44
264.033	12.43
264.247	12.44
264.462	12.35
264.676	12.66
264.891	12.88
265.105	12.82
265.32	12.74
265.534	12.64
265.749	12.53
265.963	12.33
266.178	12.27
266.392	12.22
266.606	12.19
266.821	12.1
267.035	12.06
267.25	11.89
267.464	11.82
267.678	11.87
267.893	11.81
268.107	11.76
268.321	11.93
268.536	11.88
268.75	11.9
268.964	11.94
269.179	12.07
269.393	10.25
269.607	10.17
269.821	10.19
270.036	9.94
270.25	9.99
270.464	9.99
270.678	9.9
270.892	9.96
271.106	9.94
271.321	9.87
271.535	9.93
271.749	11.25
271.963	11.29
272.177	11.23
272.391	11.36
272.605	11.27
272.819	11.33
273.033	11.41
273.248	11.44
273.462	11.38
273.676	11.51
273.89	11.47
274.104	11.57
274.318	11.51
274.532	11.6
274.746	11.61
274.96	11.76
275.173	11.85
275.387	11.81
275.601	11.78
275.815	11.93
276.029	11.85
276.243	11.83
276.457	11.84
276.671	11.92
276.885	11.87
277.098	11.9
277.312	11.93
277.526	11.79
277.74	11.79
277.954	11.73
278.167	11.73
278.381	11.79
278.595	11.83
278.809	11.88
279.022	11.84
279.236	11.86
279.45	11.82
279.663	11.72
279.877	11.65
280.091	11.69
280.304	11.71
280.518	11.62
280.732	11.46
280.945	11.46
281.159	11.35
281.373	11.31
281.586	11.24
281.8	11.13
282.013	11.19
282.227	11.22
282.44	11.14
282.654	11.14
282.867	11.11
283.081	11.18
283.294	11.12
283.508	11.05
283.721	10.97
283.935	11
284.148	11.04
284.362	10.92
284.575	10.91
284.789	10.85
285.002	10.76
285.215	10.72
285.429	10.64
285.642	10.57
285.855	10.52
286.069	10.56
286.282	10.54
286.495	10.54
286.709	10.54
286.922	10.55
287.135	10.6
287.348	10.61
287.562	10.66
287.775	10.7
287.988	10.79
288.201	10.81
288.415	10.79
288.628	10.81
288.841	10.74
289.054	10.75
289.267	10.72
289.48	10.67
289.694	10.59
289.907	10.56
290.12	10.51
290.333	10.45
290.546	10.46
290.759	10.47
290.972	10.42
291.185	10.42
291.398	10.38
291.611	10.42
291.824	10.49
292.037	10.57
292.25	10.58
292.463	10.63
292.676	10.68
292.889	10.68
293.102	10.74
293.315	10.72
293.528	10.77
293.741	10.76
293.954	10.73
294.166	10.68
294.379	10.64
294.592	10.65
294.805	10.63
295.018	10.57
295.231	10.53
295.443	10.45
295.656	10.44
295.869	10.41
296.082	10.38
296.295	10.35
296.507	10.27
296.72	10.31
296.933	10.21
297.145	10.17
297.358	10.11
297.571	10.12
297.783	10.12
297.996	10.1
298.209	10.1
298.421	10.1
298.634	10.07
298.847	10.15
299.059	10.2
299.272	10.28
299.484	10.28
299.697	10.41
299.91	10.45
300.122	10.4
300.335	10.42
300.547	10.38
300.76	10.44
300.972	10.43
301.185	10.37
301.397	10.3
301.609	10.33
301.822	10.43
302.034	10.39
302.247	10.39
302.459	10.47
302.672	10.49
302.884	10.56
303.096	10.53
303.309	10.57
303.521	10.62
303.733	10.64
303.946	10.68
304.158	10.55
304.37	10.59
304.583	10.56
304.795	10.53
305.007	10.56
305.219	10.59
305.432	10.62
305.644	10.62
305.856	10.66
306.068	10.68
306.28	10.67
306.493	10.81
306.705	10.82
306.917	10.91
307.129	10.94
307.341	10.91
307.553	10.86
307.765	10.8
307.977	10.78
308.189	10.69
308.402	10.62
308.614	10.6
308.826	10.5
309.038	10.5
309.25	10.46
309.462	10.38
309.674	10.38
309.886	10.33
310.098	10.34
310.31	10.36
310.522	10.43
310.733	10.44
310.945	10.41
311.157	10.41
311.369	10.35
311.581	10.31
311.793	10.37
312.005	10.37
312.217	10.37
312.428	10.41
312.64	10.39
312.852	10.39
313.064	10.37
313.276	10.36
313.487	10.41
313.699	10.43
313.911	10.44
314.123	10.4
314.334	10.45
314.546	10.5
314.758	10.45
314.97	10.49
315.181	10.44
315.393	10.49
315.604	10.59
315.816	10.71
316.028	10.72
316.239	10.71
316.451	10.72
316.663	10.69
316.874	10.73
317.086	10.76
317.297	10.81
317.509	10.75
317.72	10.8
317.932	10.74
318.143	10.68
318.355	10.71
318.566	10.76
318.778	10.85
318.989	10.85
319.201	10.84
319.412	10.82
319.624	10.81
319.835	10.87
320.046	10.84
320.258	10.88
320.469	10.87
320.68	10.9
320.892	10.91
321.103	10.89
321.314	10.91
321.526	10.9
321.737	10.96
321.948	10.93
322.16	11
322.371	10.96
322.582	10.92
322.793	10.89
323.005	10.94
323.216	10.93
323.427	10.82
323.638	10.78
323.849	10.68
324.06	10.59
324.272	10.56
324.483	10.48
324.694	10.47
324.905	10.5
325.116	10.47
325.327	10.46
325.538	10.47
325.749	10.54
325.96	10.58
326.171	10.66
326.382	10.71
326.593	10.69
326.804	10.69
327.015	10.76
327.226	10.77
327.437	10.71
327.648	10.69
327.859	10.74
328.07	10.83
328.281	10.84
328.492	10.84
328.703	10.93
328.914	10.97
329.125	11.02
329.335	11
329.546	11.03
329.757	11.09
329.968	11.02
330.179	11.03
330.39	10.95
330.6	10.9
330.811	10.87
331.022	10.84
331.233	10.83
331.443	10.86
331.654	10.87
331.865	10.81
332.075	10.81
332.286	10.83
332.497	10.77
332.707	10.73
332.918	10.7
333.129	10.73
333.339	10.71
333.55	10.71
333.761	10.69
333.971	10.67
334.182	10.73
334.392	10.68
334.603	10.63
334.813	10.58
335.024	10.58
335.234	10.61
335.445	10.59
335.655	10.56
335.866	10.53
336.076	10.53
336.287	10.54
336.497	10.5
336.708	10.56
336.918	10.56
337.128	10.68
337.339	10.64
337.549	10.66
337.759	10.7
337.97	10.67
338.18	10.71
338.39	10.69
338.601	10.77
338.811	10.77
339.021	10.75
339.232	10.78
339.442	10.66
339.652	10.73
339.862	10.67
340.073	10.77
340.283	10.8
340.493	10.75
340.703	10.77
340.913	10.66
341.124	10.6
341.334	10.61
341.544	10.64
341.754	10.68
341.964	10.7
342.174	10.78
342.384	10.74
342.594	10.79
342.804	10.86
343.014	10.86
343.224	10.87
343.435	10.93
343.645	10.89
343.855	10.89
344.065	10.87
344.274	10.83
344.484	10.81
344.694	10.74
344.904	10.68
345.114	10.66
345.324	10.63
345.534	10.57
345.744	10.58
345.954	10.63
346.164	10.6
346.374	10.59
346.583	10.58
346.793	10.61
347.003	10.61
347.213	10.64
347.423	10.64
347.632	10.63
347.842	10.72
348.052	10.74
348.262	10.75
348.471	10.73
348.681	10.76
348.891	10.76
349.1	10.76
349.31	10.82
349.52	10.81
349.729	10.8
349.939	10.87
350.149	10.82
350.358	10.76
350.568	10.78
350.778	10.77
350.987	10.79
351.197	10.81
351.406	9.18
351.616	9.16
351.825	9.22
352.035	9.22
352.244	9.16
352.454	9.2
352.663	9.19
352.873	9.17
353.082	9.2
353.292	9.25
353.501	9.29
353.711	10.86
353.92	10.85
354.129	10.81
354.339	10.81
354.548	10.83
354.757	10.8
354.967	10.83
355.176	10.84
355.385	10.83
355.595	10.78
355.804	10.73
356.013	10.69
356.223	10.66
356.432	10.66
356.641	10.63
356.85	10.59
357.059	10.58
357.269	10.52
357.478	10.56
357.687	10.58
357.896	10.63
358.105	10.63
358.314	10.67
358.524	10.68
358.733	10.67
358.942	10.67
359.151	10.7
359.36	10.69
359.569	10.74
359.778	10.76
359.987	10.74
360.196	10.66
360.405	10.67
360.614	10.61
360.823	10.56
361.032	10.59
361.241	10.57
361.45	10.55
361.659	10.56
361.868	10.58
362.077	10.54
362.286	10.58
362.495	10.61
362.704	10.61
362.912	10.62
363.121	10.63
363.33	10.6
363.539	10.64
363.748	10.71
363.957	10.72
364.165	10.73
364.374	10.75
364.583	10.69
364.792	10.68
365	10.7
365.209	10.74
365.418	10.75
365.626	10.78
365.835	10.82
366.044	10.79
366.253	10.82
366.461	10.81
366.67	10.78
366.878	10.8
367.087	10.81
367.296	10.82
367.504	10.83
367.713	10.9
367.921	10.92
368.13	10.91
368.338	10.89
368.547	10.9
368.755	10.93
368.964	10.96
369.172	11
369.381	11.1
369.589	11.08
369.798	11.1
370.006	11.09
370.215	11.04
370.423	11
370.632	11.03
370.84	10.97
371.048	10.94
371.257	10.97
371.465	10.93
371.673	10.88
371.882	10.9
372.09	10.88
372.298	10.89
372.507	10.96
372.715	10.99
372.923	11.01
373.131	11.01
373.34	11.04
373.548	11.05
373.756	11.06
373.964	11.1
374.172	11.09
374.381	11.14
374.589	11.15
374.797	11.14
375.005	11.12
375.213	11.08
375.421	11.03
375.629	11.01
375.837	10.97
376.045	10.97
376.254	10.94
376.462	10.91
376.67	10.87
376.878	10.8
377.086	10.75
377.294	10.77
377.502	10.79
377.71	10.87
377.918	10.88
378.126	10.92
378.333	10.93
378.541	10.94
378.749	10.99
378.957	11.02
379.165	11.05
379.373	11.07
379.581	11.11
379.789	11.14
379.996	11.15
380.204	11.17
380.412	11.16
380.62	11.18
380.828	11.16
381.035	11.15
381.243	11.17
381.451	11.22
381.659	11.22
381.866	11.22
382.074	11.22
382.282	11.25
382.489	11.25
382.697	11.24
382.905	11.21
383.112	11.25
383.32	11.23
383.528	11.24
383.735	11.21
383.943	11.27
384.15	11.29
384.358	11.26
384.565	11.23
384.773	11.21
384.981	11.2
385.188	11.21
385.396	11.21
385.603	11.21
385.811	11.19
386.018	11.16
386.225	11.14
386.433	11.11
386.64	11.15
386.848	11.16
387.055	11.14
387.263	11.18
387.47	11.18
387.677	11.15
387.885	11.18
388.092	11.18
388.299	11.26
388.507	11.27
388.714	11.28
388.921	11.28
389.128	11.29
389.336	11.34
389.543	11.34
389.75	11.33
389.957	11.33
390.165	11.35
390.372	11.38
390.579	11.32
390.786	11.33
390.993	11.33
391.2	11.32
391.408	11.32
391.615	11.33
391.822	11.35
392.029	11.36
392.236	11.4
392.443	11.39
392.65	11.38
392.857	11.42
393.064	11.42
393.271	11.42
393.478	11.42
393.685	11.43
393.892	11.4
394.099	11.38
394.306	11.39
394.513	11.36
394.72	11.35
394.927	11.35
395.134	11.35
395.341	11.35
395.547	11.37
395.754	11.37
395.961	11.38
396.168	11.4
396.375	11.42
396.582	11.45
396.788	11.46
396.995	11.51
397.202	11.52
397.409	11.52
397.616	11.49
397.822	11.46
398.029	11.48
398.236	11.49
398.442	11.49
398.649	11.49
398.856	11.49
399.062	11.5
399.269	11.47
399.476	11.47
399.682	11.44
399.889	11.47
400.096	11.51
400.302	11.52
400.509	11.51
400.715	11.53
400.922	11.51
401.128	11.52
401.335	11.53
401.541	11.55
401.748	11.56
401.954	11.64
402.161	11.64
402.367	11.65
402.574	11.64
402.78	11.65
402.986	11.63
403.193	11.62
403.399	11.64
403.606	11.65
403.812	11.65
404.018	11.66
404.225	11.64
404.431	11.65
404.637	11.64
404.844	11.64
405.05	11.67
405.256	11.69
405.462	11.72
405.669	11.73
405.875	11.72
406.081	11.74
406.287	11.75
406.494	11.75
406.7	11.76
406.906	11.79
407.112	11.8
407.318	11.81
407.524	11.82
407.73	11.82
407.937	11.84
408.143	11.85
408.349	11.86
408.555	11.89
408.761	11.87
408.967	11.88
409.173	11.88
409.379	11.9
409.585	11.89
409.791	11.87
409.997	11.88
410.203	11.86
410.409	11.88
410.615	11.87
410.821	11.83
411.027	11.89
411.233	11.9
411.438	11.92
411.644	11.93
411.85	11.95
412.056	11.97
412.262	11.99
412.468	12
412.673	12.03
412.879	12.05
413.085	12.11
413.291	12.1
413.497	12.14
413.702	12.15
413.908	12.13
414.114	12.14
414.319	12.16
414.525	12.13
414.731	12.15
414.937	12.21
415.142	12.22
415.348	12.2
415.553	12.17
415.759	12.14
415.965	12.12
416.17	12.13
416.376	12.14
416.581	12.13
416.787	12.17
416.992	12.17
417.198	12.14
417.404	12.12
417.609	12.13
417.815	12.14
418.02	12.14
418.225	12.17
418.431	12.16
418.636	12.17
418.842	12.18
419.047	12.17
419.253	12.18
419.458	12.17
419.663	12.16
419.869	12.16
420.074	12.16
420.279	12.18
420.485	12.18
420.69	12.19
420.895	12.2
421.101	12.21
421.306	12.21
421.511	12.21
421.716	12.24
421.922	12.27
422.127	12.29
422.332	12.31
422.537	12.33
422.742	12.33
422.947	12.34
423.153	12.35
423.358	12.36
423.563	12.38
423.768	12.39
423.973	12.38
424.178	12.39
424.383	12.37
424.588	12.38
424.793	12.38
424.998	12.41
425.203	12.42
425.408	12.45
425.613	12.46
425.818	12.47
426.023	12.51
426.228	12.53
426.433	12.55
426.638	12.61
426.843	12.64
427.048	12.66
427.253	12.68
427.458	12.71
427.663	12.72
427.867	12.75
428.072	12.77
428.277	12.8
428.482	12.81
428.687	12.82
428.892	12.83
429.096	12.85
429.301	12.85
429.506	12.87
429.711	12.89
429.915	12.92
430.12	12.91
430.325	12.91
430.529	12.91
430.734	12.92
430.939	12.94
431.143	12.96
431.348	12.95
431.553	12.96
431.757	12.97
431.962	12.98
432.166	12.97
432.371	13
432.575	13.02
432.78	13.02
432.984	13.02
433.189	13.03
433.394	13.03
433.598	13.03
433.802	13.04
434.007	13.05
434.211	13.04
434.416	13.05
434.62	13.06
434.825	13.09
435.029	13.11
435.233	13.14
435.438	13.16
435.642	13.18
435.846	13.24
436.051	13.27
436.255	13.28
436.459	13.31
436.664	13.33
436.868	13.35
437.072	13.35
437.276	13.38
437.481	13.39
437.685	13.4
437.889	13.39
438.093	13.38
438.298	13.4
438.502	13.4
438.706	13.41
438.91	13.44
439.114	13.43
439.318	13.44
439.522	13.42
439.726	13.42
439.931	13.44
440.135	13.46
440.339	13.48
440.543	13.47
440.747	13.5
440.951	13.52
441.155	13.52
441.359	13.53
441.563	13.55
441.767	13.58
441.971	13.58
442.175	13.6
442.378	13.64
442.582	13.64
442.786	13.69
442.99	13.69
443.194	13.7
443.398	13.71
443.602	13.72
443.806	13.75
444.009	13.76
444.213	13.77
444.417	13.77
444.621	13.78
444.825	13.8
445.028	13.78
445.232	13.79
445.436	13.8
445.639	13.8
445.843	13.81
446.047	13.83
446.251	13.84
446.454	13.87
446.658	13.88
446.861	13.89
447.065	13.89
447.269	13.91
447.472	13.96
447.676	13.99
447.879	14.03
448.083	14.05
448.287	14.06
448.49	14.08
448.694	14.06
448.897	14.1
449.101	14.12
449.304	14.16
449.507	14.21
449.711	14.2
449.914	14.21
450.118	14.21
450.321	14.25
450.525	14.28
450.728	14.28
450.931	14.36
451.135	14.37
451.338	14.38
451.541	14.39
451.745	14.39
451.948	14.41
452.151	14.43
452.355	14.47
452.558	14.47
452.761	14.49
452.964	14.53
453.168	14.54
453.371	14.55
453.574	14.59
453.777	14.63
453.98	14.64
454.183	14.68
454.387	14.73
454.59	14.73
454.793	14.77
454.996	14.78
455.199	14.79
455.402	14.81
455.605	14.84
455.808	14.85
456.011	14.87
456.214	14.88
456.417	14.89
456.62	14.87
456.823	14.88
457.026	14.89
457.229	14.94
457.432	14.95
457.635	14.96
457.838	14.95
458.041	14.95
458.244	14.94
458.447	14.96
458.65	14.97
458.852	14.98
459.055	14.99
459.258	14.99
459.461	14.98
459.664	15
459.867	15
460.069	15.03
460.272	15.03
460.475	15.05
460.678	15.06
460.88	15.08
461.083	15.12
461.286	15.13
461.488	15.15
461.691	15.15
461.894	15.17
462.096	15.2
462.299	15.23
462.502	15.27
462.704	15.3
462.907	15.32
463.109	15.33
463.312	15.34
463.514	15.38
463.717	15.42
463.92	15.45
464.122	15.46
464.325	15.49
464.527	15.51
464.729	15.52
464.932	15.54
465.134	15.55
465.337	15.58
465.539	15.59
465.742	15.6
465.944	15.61
466.146	15.64
466.349	15.69
466.551	15.7
466.753	15.69
466.956	15.72
467.158	15.71
467.36	15.72
467.563	15.75
467.765	15.78
467.967	15.81
468.169	15.83
468.372	15.84
468.574	15.83
468.776	15.86
468.978	15.92
469.18	15.93
469.383	15.97
469.585	16.01
469.787	16.02
469.989	16.04
470.191	16.05
470.393	16.06
470.595	16.1
470.797	16.14
470.999	16.15
471.201	16.16
471.403	16.19
471.606	16.21
471.808	16.23
472.009	16.24
472.211	16.26
472.413	16.27
472.615	16.31
472.817	16.35
473.019	16.36
473.221	16.4
473.423	16.42
473.625	16.43
473.827	16.45
474.029	16.46
474.231	16.49
474.432	16.51
474.634	16.53
474.836	16.56
475.038	16.52
475.24	16.55
475.441	16.56
475.643	16.59
475.845	16.62
476.046	16.62
476.248	16.65
476.45	16.67
476.652	16.7
476.853	16.74
477.055	16.74
477.257	16.8
477.458	16.83
477.66	16.84
477.861	16.85
478.063	16.88
478.265	16.9
478.466	16.92
478.668	16.93
478.869	16.95
479.071	16.95
479.272	16.96
479.474	16.96
479.675	16.98
479.877	17
480.078	17.01
480.28	17.03
480.481	17.06
480.682	17.06
480.884	17.09
481.085	17.1
481.287	17.13
481.488	17.14
481.689	17.14
481.891	17.14
482.092	17.13
482.293	17.12
482.495	17.1
482.696	17.11
482.897	17.13
483.098	17.17
483.3	17.21
483.501	17.24
483.702	17.27
483.903	17.3
484.104	17.31
484.306	17.34
484.507	17.37
484.708	17.4
484.909	17.42
485.11	17.45
485.311	17.45
485.512	17.46
485.713	17.46
485.914	17.47
486.116	17.48
486.317	17.5
486.518	17.52
486.719	17.53
486.92	17.55
487.121	17.57
487.322	17.59
487.523	17.62
487.723	17.63
487.924	17.65
488.125	17.68
488.326	17.71
488.527	17.72
488.728	17.74
488.929	17.76
489.13	17.79
489.331	17.82
489.531	17.83
489.732	17.85
489.933	17.86
490.134	17.88
490.335	17.9
490.535	17.94
490.736	17.97
490.937	18
491.137	18.04
491.338	18.07
491.539	18.08
491.74	18.11
491.94	18.14
492.141	18.17
492.341	18.19
492.542	18.22
492.743	18.24
492.943	18.27
493.144	18.29
493.344	18.31
493.545	18.35
493.746	18.37
493.946	18.38
494.147	18.42
494.347	18.45
494.548	18.5
494.748	18.54
494.949	18.55
495.149	18.57
495.349	18.6
495.55	18.63
495.75	18.67
495.951	18.69
496.151	18.75
496.351	18.78
496.552	18.78
496.752	18.8
496.952	18.81
497.153	18.85
497.353	18.88
497.553	18.92
497.754	18.94
497.954	18.95
498.154	18.98
498.354	19
498.554	19.03
498.755	19.08
498.955	19.11
499.155	19.16
499.355	19.19
499.555	19.23
499.755	19.24
499.956	19.29
500.156	19.33
500.356	19.35
500.556	19.38
500.756	19.39
500.956	19.42
501.156	19.45
501.356	19.47
501.556	19.5
501.756	19.52
501.956	19.55
502.156	19.57
502.356	19.6
502.556	19.64
502.756	19.69
502.956	19.71
503.156	19.74
503.356	19.76
503.555	19.78
503.755	19.8
503.955	19.83
504.155	19.87
504.355	19.88
504.555	19.89
504.754	19.91
504.954	19.93
505.154	19.96
505.354	19.99
505.553	20.01
505.753	20.05
505.953	20.07
506.153	20.09
506.352	20.11
506.552	20.15
506.752	20.18
506.951	20.2
507.151	20.21
507.351	20.24
507.55	20.25
507.75	20.24
507.949	20.23
508.149	20.28
508.348	20.31
508.548	20.31
508.747	20.32
508.947	20.35
509.146	20.39
509.346	20.41
509.545	20.42
509.745	20.47
509.944	20.52
510.144	20.55
510.343	20.56
510.543	20.58
510.742	20.61
510.941	20.64
511.141	20.66
511.34	20.68
511.539	20.71
511.739	20.74
511.938	20.76
512.137	20.8
512.337	20.85
512.536	20.87
512.735	20.91
512.934	20.95
513.134	20.98
513.333	21.03
513.532	21.06
513.731	21.1
513.93	21.14
514.129	21.16
514.329	21.17
514.528	21.18
514.727	21.23
514.926	21.26
515.125	21.28
515.324	21.32
515.523	21.34
515.722	21.38
515.921	21.42
516.12	21.46
516.319	21.48
516.518	21.52
516.717	21.55
516.916	21.56
517.115	21.58
517.314	21.62
517.513	21.61
517.712	21.62
517.911	21.64
518.11	21.66
518.309	21.67
518.507	21.68
518.706	21.71
518.905	21.74
519.104	21.77
519.303	21.78
519.501	21.82
519.7	21.86
519.899	21.92
520.098	21.95
520.296	21.98
520.495	22.04
520.694	22.08
520.893	22.11
521.091	22.17
521.29	22.21
521.489	22.28
521.687	22.32
521.886	22.36
522.084	22.38
522.283	22.42
522.482	22.46
522.68	22.47
522.879	22.51
523.077	22.54
523.276	22.55
523.474	22.58
523.673	22.59
523.871	22.59
524.07	22.6
524.268	22.63
524.467	22.64
524.665	22.67
524.863	22.69
525.062	22.71
525.26	22.72
525.459	22.75
525.657	22.75
525.855	22.76
526.054	22.79
526.252	22.83
526.45	22.84
526.649	22.86
526.847	22.89
527.045	22.91
527.243	22.93
527.442	22.96
527.64	22.99
527.838	23.04
528.036	23.09
528.234	23.12
528.433	23.16
528.631	23.2
528.829	23.24
529.027	23.26
529.225	23.3
529.423	23.33
529.621	23.36
529.819	23.4
530.017	23.44
530.215	23.46
530.414	23.5
530.612	23.51
530.81	23.54
531.008	23.57
531.206	23.6
531.403	23.63
531.601	23.67
531.799	23.69
531.997	23.7
532.195	23.71
532.393	23.74
532.591	23.77
532.789	23.82
532.987	23.85
533.184	23.87
533.382	23.92
533.58	23.95
533.778	23.97
533.976	24.02
534.173	24.07
534.371	24.13
534.569	24.16
534.767	24.2
534.964	24.23
535.162	24.26
535.36	24.3
535.557	24.31
535.755	24.34
535.953	24.38
536.15	24.4
536.348	24.42
536.546	24.46
536.743	24.51
536.941	24.54
537.138	24.59
537.336	24.62
537.533	24.65
537.731	24.69
537.928	24.73
538.126	24.77
538.323	24.84
538.521	24.89
538.718	24.91
538.916	24.96
539.113	25
539.311	25.04
539.508	25.07
539.705	25.1
539.903	25.12
540.1	25.15
540.297	25.15
540.495	25.15
540.692	25.18
540.889	25.21
541.087	25.23
541.284	25.27
541.481	25.3
541.678	25.34
541.876	25.37
542.073	25.42
542.27	25.44
542.467	25.49
542.664	25.53
542.862	25.56
543.059	25.61
543.256	25.65
543.453	25.66
543.65	25.7
543.847	25.73
544.044	25.76
544.241	25.8
544.438	25.84
544.635	25.88
544.832	25.93
545.029	25.97
545.226	26
545.423	26.04
545.62	26.09
545.817	26.11
546.014	26.14
546.211	26.18
546.408	26.2
546.605	26.24
546.802	26.27
546.999	26.34
547.196	26.38
547.392	26.41
547.589	26.46
547.786	26.48
547.983	26.54
548.18	26.58
548.376	26.63
548.573	26.69
548.77	26.73
548.967	26.78
549.163	26.78
549.36	26.84
549.557	26.9
549.753	26.93
549.95	26.99
550.147	27.02
550.343	27.06
550.54	27.1
550.737	27.14
550.933	27.19
551.13	27.23
551.326	27.28
551.523	27.26
551.719	27.25
551.916	27.31
552.112	27.35
552.309	27.37
552.505	27.39
552.702	27.43
552.898	27.46
553.095	27.5
553.291	27.54
553.487	27.57
553.684	27.64
553.88	27.7
554.077	27.74
554.273	27.79
554.469	27.86
554.666	27.91
554.862	27.96
555.058	28.02
555.255	28.06
555.451	28.1
555.647	28.15
555.843	28.21
556.039	28.25
556.236	28.31
556.432	28.34
556.628	28.37
556.824	28.42
557.02	28.44
557.217	28.5
557.413	28.54
557.609	28.57
557.805	28.61
558.001	28.63
558.197	28.65
558.393	28.68
558.589	28.7
558.785	28.74
558.981	28.78
559.177	28.83
559.373	28.86
559.569	28.88
559.765	28.93
559.961	28.98
560.157	29.02
560.353	29.05
560.549	29.06
560.745	29.08
560.941	29.13
561.136	29.15
561.332	29.19
561.528	29.23
561.724	29.26
561.92	29.29
562.116	29.32
562.311	29.36
562.507	29.41
562.703	29.48
562.899	29.55
563.094	29.58
563.29	29.61
563.486	29.63
563.681	29.64
563.877	29.71
564.073	29.74
564.268	29.76
564.464	29.78
564.66	29.82
564.855	29.8
565.051	29.8
565.246	29.84
565.442	29.88
565.637	29.9
565.833	29.94
566.028	29.94
566.224	29.95
566.419	30.01
566.615	30.05
566.81	30.07
567.006	30.13
567.201	30.17
567.397	30.21
567.592	30.25
567.787	30.3
567.983	30.34
568.178	30.38
568.373	30.43
568.569	30.44
568.764	30.46
568.959	30.52
569.155	30.58
569.35	30.62
569.545	30.65
569.74	30.7
569.936	30.74
570.131	30.78
570.326	30.84
570.521	30.88
570.716	30.94
570.912	30.96
571.107	30.98
571.302	30.96
571.497	30.99
571.692	31.01
571.887	31.03
572.082	31.09
572.277	31.12
572.472	31.15
572.667	31.15
572.862	31.17
573.057	31.25
573.252	31.32
573.447	31.38
573.642	31.4
573.837	31.46
574.032	31.5
574.227	31.53
574.422	31.55
574.617	31.59
574.812	31.67
575.007	31.72
575.202	31.73
575.396	31.75
575.591	31.81
575.786	31.87
575.981	31.89
576.176	31.95
576.37	31.99
576.565	32.07
576.76	32.11
576.955	32.15
577.149	32.2
577.344	32.26
577.539	32.31
577.733	32.36
577.928	32.39
578.123	32.43
578.317	32.46
578.512	32.5
578.706	32.54
578.901	32.59
579.096	32.63
579.29	32.66
579.485	32.69
579.679	32.74
579.874	32.76
580.068	32.83
580.263	32.88
580.457	32.94
580.652	33
580.846	33.02
581.04	33.03
581.235	33.07
581.429	33.11
581.624	33.19
581.818	33.23
582.012	33.28
582.207	33.32
582.401	33.32
582.595	33.36
582.79	33.38
582.984	33.44
583.178	33.52
583.372	33.58
583.567	33.58
583.761	33.61
583.955	33.67
584.149	33.69
584.344	33.74
584.538	33.82
584.732	33.88
584.926	33.94
585.12	33.98
585.314	34.01
585.508	34.04
585.702	34.09
585.896	34.15
586.091	34.2
586.285	34.21
586.479	34.24
586.673	34.3
586.867	34.34
587.061	34.37
587.255	34.37
587.449	34.42
587.642	34.45
587.836	34.48
588.03	34.5
588.224	34.49
588.418	34.55
588.612	34.56
588.806	34.55
589	34.61
589.193	34.63
589.387	34.62
589.581	34.69
589.775	34.73
589.969	34.77
590.162	34.81
590.356	34.86
590.55	34.9
590.744	34.96
590.937	35
591.131	35.04
591.325	35.1
591.518	35.18
591.712	35.21
591.906	35.26
592.099	35.29
592.293	35.36
592.486	35.43
592.68	35.49
592.874	35.5
593.067	35.54
593.261	35.54
593.454	35.57
593.648	35.64
593.841	35.63
594.035	35.66
594.228	35.68
594.421	35.7
594.615	35.69
594.808	35.7
595.002	35.74
595.195	35.78
595.388	35.8
595.582	35.82
595.775	35.85
595.968	35.88
596.162	35.88
596.355	35.93
596.548	35.95
596.742	35.99
596.935	36.01
597.128	36.06
597.321	36.11
597.515	36.17
597.708	36.2
597.901	36.22
598.094	36.25
598.287	36.34
598.48	36.4
598.674	36.47
598.867	36.53
599.06	36.64
599.253	36.67
599.446	36.7
599.639	36.72
599.832	36.78
600.025	36.83
600.218	36.88
600.411	36.9
600.604	36.93
600.797	36.95
600.99	36.96
601.183	36.97
601.376	36.98
601.569	36.99
601.762	37.04
601.955	37.1
602.147	37.14
602.34	37.15
602.533	37.19
602.726	37.22
602.919	37.25
603.112	37.31
603.304	37.3
603.497	37.35
603.69	37.37
603.883	37.42
604.075	37.42
604.268	37.44
604.461	37.48
604.654	37.5
604.846	37.54
605.039	37.58
605.231	37.6
605.424	37.66
605.617	37.7
605.809	37.76
606.002	37.79
606.194	37.88
606.387	37.95
606.58	38
606.772	38.08
606.965	38.12
607.157	38.13
607.35	38.17
607.542	38.21
607.735	38.25
607.927	38.28
608.119	38.3
608.312	38.3
608.504	38.31
608.697	38.35
608.889	38.34
609.081	38.38
609.274	38.47
609.466	38.51
609.658	38.56
609.851	38.6
610.043	38.63
610.235	38.67
610.427	38.73
610.62	38.8
610.812	38.88
611.004	38.94
611.196	39.01
611.388	39.01
611.581	39.06
611.773	39.12
611.965	39.16
612.157	39.26
612.349	39.33
612.541	39.36
612.733	39.4
612.925	39.43
613.117	39.47
613.309	39.52
613.501	39.59
613.693	39.61
613.885	39.63
614.077	39.72
614.269	39.73
614.461	39.75
614.653	39.79
614.845	39.82
615.037	39.84
615.229	39.92
615.421	39.93
615.613	39.98
615.805	40.04
615.996	40.11
616.188	40.12
616.38	40.16
616.572	40.18
616.764	40.22
616.955	40.23
617.147	40.25
617.339	40.28
617.531	40.31
617.722	40.35
617.914	40.36
618.106	40.41
618.297	40.46
618.489	40.5
618.681	40.54
618.872	40.58
619.064	40.67
619.255	40.72
619.447	40.75
619.639	40.8
619.83	40.85
620.022	40.89
620.213	40.93
620.405	40.94
620.596	41.01
620.788	41.03
620.979	41.08
621.171	41.12
621.362	41.16
621.553	41.19
621.745	41.21
621.936	41.26
622.128	41.34
622.319	41.35
622.51	41.38
622.702	41.4
622.893	41.52
623.084	41.54
623.276	41.57
623.467	41.62
623.658	41.71
623.849	41.81
624.041	41.82
624.232	41.82
624.423	41.9
624.614	41.93
624.805	41.96
624.996	41.94
625.188	41.96
625.379	41.97
625.57	41.98
625.761	41.99
625.952	42.01
626.143	42.07
626.334	42.07
626.525	42.03
626.716	42.11
626.907	42.13
627.098	42.15
627.289	42.18
627.48	42.21
627.671	42.25
627.862	42.31
628.053	42.33
628.244	42.35
628.435	42.42
628.626	42.51
628.816	42.49
629.007	42.5
629.198	42.6
629.389	42.63
629.58	42.69
629.771	42.73
629.961	42.74
630.152	42.79
630.343	42.83
630.534	42.85
630.724	42.9
630.915	42.99
631.106	43.1
631.296	43.1
631.487	43.18
631.678	43.23
631.868	43.29
632.059	43.31
632.25	43.31
632.44	43.3
632.631	43.39
632.821	43.42
633.012	43.47
633.202	43.47
633.393	43.51
633.583	43.52
633.774	43.54
633.964	43.56
634.155	43.59
634.345	43.67
634.536	43.74
634.726	43.76
634.916	43.8
635.107	43.82
635.297	43.86
635.488	43.93
635.678	43.98
635.868	44.02
636.059	44.11
636.249	44.18
636.439	44.21
636.629	44.22
636.82	44.26
637.01	44.29
637.2	44.28
637.39	44.33
637.581	44.34
637.771	44.38
637.961	44.44
638.151	44.48
638.341	44.52
638.531	44.55
638.721	44.63
638.911	44.68
639.102	44.74
639.292	44.75
639.482	44.83
639.672	44.87
639.862	44.92
640.052	44.95
640.242	44.91
640.432	44.97
640.622	45.01
640.812	45.04
641.002	45.04
641.191	45.04
641.381	45.17
641.571	45.11
641.761	45.15
641.951	45.15
642.141	45.19
642.331	45.25
642.52	45.3
642.71	45.31
642.9	45.34
643.09	45.44
643.28	45.48
643.469	45.5
643.659	45.54
643.849	45.58
644.038	45.64
644.228	45.67
644.418	45.74
644.607	45.72
644.797	45.79
644.987	45.86
645.176	45.85
645.366	45.91
645.556	45.96
645.745	46.03
645.935	46.09
646.124	46.12
646.314	46.12
646.503	46.14
646.693	46.2
646.882	46.17
647.072	46.16
647.261	46.19
647.45	46.2
647.64	46.21
647.829	46.3
648.019	46.28
648.208	46.32
648.397	46.39
648.587	46.4
648.776	46.47
648.965	46.54
649.155	46.61
649.344	46.69
649.533	46.79
649.723	46.8
649.912	46.77
650.101	46.83
650.29	46.87
650.479	46.96
650.669	47.02
650.858	47.02
651.047	47.07
651.236	47.07
651.425	47.07
651.614	47.04
651.803	47.1
651.992	47.15
652.182	47.22
652.371	47.23
652.56	47.21
652.749	47.25
652.938	47.27
653.127	47.25
653.316	47.33
653.505	47.38
653.694	47.41
653.882	47.38
654.071	47.4
654.26	47.45
654.449	47.51
654.638	47.53
654.827	47.48
655.016	47.5
655.205	47.61
655.393	47.65
655.582	47.66
655.771	47.68
655.96	47.79
656.149	47.84
656.337	47.82
656.526	47.79
656.715	47.87
656.903	47.97
657.092	48.01
657.281	47.98
657.469	47.97
657.658	48.03
657.847	48.06
658.035	48.1
658.224	48.09
658.412	48.05
658.601	48.1
658.79	48.05
658.978	48.06
659.167	48.09
659.355	48.14
659.544	48.16
659.732	48.18
659.921	48.23
660.109	48.23
660.297	48.25
660.486	48.37
660.674	48.42
660.863	48.52
661.051	48.55
661.239	48.61
661.428	48.69
661.616	48.72
661.804	48.75
661.993	48.78
662.181	48.8
662.369	48.88
662.557	48.91
662.746	49
662.934	49.04
663.122	49.12
663.31	49.15
663.498	49.16
663.687	49.25
663.875	49.3
664.063	49.38
664.251	49.43
664.439	49.49
664.627	49.53
664.815	49.57
665.003	49.6
665.191	49.61
665.379	49.69
665.567	49.71
665.755	49.73
665.943	49.74
666.131	49.75
666.319	49.76
666.507	49.76
666.695	49.78
666.883	49.76
667.071	49.78
667.259	49.8
667.447	49.8
667.635	49.87
667.823	49.89
668.01	49.93
668.198	49.94
668.386	50.03
668.574	50.1
668.761	50.16
668.949	50.21
669.137	50.27
669.325	50.33
669.512	50.28
669.7	50.26
669.888	50.32
670.075	50.35
670.263	50.4
670.451	50.38
670.638	50.38
670.826	50.38
671.013	50.36
671.201	50.42
671.389	50.39
671.576	50.5
671.764	50.53
671.951	50.54
672.139	50.62
672.326	50.65
672.514	50.69
672.701	50.7
672.889	50.76
673.076	50.83
673.263	50.84
673.451	50.91
673.638	50.87
673.825	50.95
674.013	50.97
674.2	51
674.387	51.04
674.575	51.07
674.762	51.07
674.949	51.1
675.137	51.07
675.324	51.1
675.511	51.13
675.698	51.16
675.885	51.16
676.073	51.14
676.26	51.21
676.447	51.22
676.634	51.3
676.821	51.36
677.008	51.35
677.195	51.39
677.383	51.44
677.57	51.45
677.757	51.52
677.944	51.55
678.131	51.63
678.318	51.56
678.505	51.63
678.692	51.63
678.879	51.66
679.066	51.68
679.253	51.68
679.439	51.67
679.626	51.71
679.813	51.7
680	51.71
680.187	51.71
680.374	51.74
680.561	51.74
680.747	51.77
680.934	51.81
681.121	51.84
681.308	51.93
681.494	51.96
681.681	51.99
681.868	52.06
682.055	52.15
682.241	52.24
682.428	52.31
682.615	52.4
682.801	52.44
682.988	52.46
683.175	52.52
683.361	52.5
683.548	52.55
683.734	52.58
683.921	52.58
684.107	52.61
684.294	52.59
684.48	52.63
684.667	52.64
684.853	52.69
685.04	52.77
685.226	52.81
685.413	52.84
685.599	52.89
685.786	52.98
685.972	53.04
686.158	53.03
686.345	53.1
686.531	53.15
686.717	53.11
686.904	53.09
687.09	53.13
687.276	53.15
687.463	53.19
687.649	53.22
687.835	53.19
688.021	53.25
688.208	53.32
688.394	53.32
688.58	53.34
688.766	53.44
688.952	53.46
689.138	53.44
689.324	53.42
689.511	53.44
689.697	53.43
689.883	53.48
690.069	53.45
690.255	53.43
690.441	53.48
690.627	53.5
690.813	53.46
690.999	53.5
691.185	53.57
691.371	53.64
691.557	53.73
691.743	53.78
691.929	53.77
692.115	53.78
692.3	53.74
692.486	53.81
692.672	53.81
692.858	53.9
693.044	53.86
693.23	53.84
693.415	53.86
693.601	53.88
693.787	53.95
693.973	54
694.158	54.15
694.344	54.25
694.53	54.28
694.715	54.34
694.901	54.33
695.087	54.44
695.272	54.49
695.458	54.5
695.644	54.52
695.829	54.49
696.015	54.51
696.2	54.45
696.386	54.47
696.571	54.47
696.757	54.48
696.943	54.5
697.128	54.47
697.313	54.44
697.499	54.45
697.684	54.42
697.87	54.36
698.055	54.34
698.241	54.3
698.426	54.26
698.611	54.2
698.797	54.18
698.982	54.19
699.167	54.24
699.353	54.28
699.538	54.29
699.723	54.35
699.909	54.39
700.094	54.44
700.279	54.46
700.464	54.57
700.649	54.62
700.835	54.71
701.02	54.79
701.205	54.89
701.39	54.91
701.575	54.95
701.76	54.97
701.945	55.05
702.13	55.06
702.316	55.17
702.501	55.15
702.686	55.23
702.871	55.25
703.056	55.2
703.241	55.15
703.426	55.21
703.611	55.32
703.796	55.37
703.98	55.38
704.165	55.41
704.35	55.39
704.535	55.38
704.72	55.37
704.905	55.32
705.09	55.41
705.275	55.37
705.459	55.44
705.644	55.43
705.829	55.36
706.014	55.47
706.198	55.54
706.383	55.55
706.568	55.63
706.753	55.68
706.937	55.77
707.122	55.74
707.307	55.81
707.491	55.8
707.676	55.75
707.86	55.88
708.045	55.89
708.23	55.93
708.414	56.02
708.599	55.96
708.783	55.92
708.968	55.96
709.152	56.06
709.337	56.06
709.521	56.11
709.706	56.21
709.89	56.19
710.075	56.17
710.259	56.18
710.443	56.2
710.628	56.3
710.812	56.41
710.997	56.42
711.181	56.47
711.365	56.5
711.55	56.47
711.734	56.49
711.918	56.47
712.102	56.5
712.287	56.55
712.471	56.61
712.655	56.58
712.839	56.52
713.023	56.5
713.208	56.53
713.392	56.56
713.576	56.62
713.76	56.65
713.944	56.74
714.128	56.85
714.312	56.81
714.496	56.78
714.68	56.78
714.864	56.87
715.048	56.88
715.232	56.84
715.416	56.85
715.6	56.8
715.784	56.78
715.968	56.76
716.152	56.7
716.336	56.72
716.52	56.79
716.704	56.85
716.888	56.92
717.072	57
717.256	57.05
717.439	57.09
717.623	57.19
717.807	57.22
717.991	57.32
718.174	57.37
718.358	57.42
718.542	57.42
718.726	57.46
718.909	57.37
719.093	57.35
719.277	57.34
719.46	57.43
719.644	57.44
719.828	57.44
720.011	57.4
720.195	57.4
720.378	57.37
720.562	57.44
720.746	57.54
720.929	57.67
721.113	57.72
721.296	57.72
721.48	57.71
721.663	57.79
721.846	57.92
722.03	58
722.213	58.09
722.397	58.25
722.58	58.27
722.764	58.24
722.947	58.2
723.13	58.24
723.314	58.35
723.497	58.35
723.68	58.28
723.863	58.26
724.047	58.24
724.23	58.22
724.413	58.14
724.596	58.21
724.78	58.24
724.963	58.24
725.146	58.21
725.329	58.16
725.512	58.26
725.695	58.32
725.879	58.35
726.062	58.36
726.245	58.37
726.428	58.4
726.611	58.3
726.794	58.27
726.977	58.28
727.16	58.29
727.343	58.39
727.526	58.42
727.709	58.43
727.892	58.46
728.075	58.51
728.258	58.55
728.441	58.64
728.624	58.68
728.806	58.68
728.989	58.71
729.172	58.81
729.355	58.76
729.538	58.72
729.721	58.71
729.903	58.69
730.086	58.76
730.269	58.79
730.452	58.81
730.634	58.83
730.817	59.02
731	59.06
731.182	59.12
731.365	59.2
731.548	59.19
731.73	59.24
731.913	59.29
732.095	59.28
732.278	59.19
732.461	59.27
732.643	59.34
732.826	59.28
733.008	59.41
733.191	59.41
733.373	59.45
733.556	59.52
733.738	59.54
733.921	59.51
734.103	59.5
734.285	59.59
734.468	59.48
734.65	59.52
734.833	59.54
735.015	59.44
735.197	59.42
735.38	59.43
735.562	59.43
735.744	59.43
735.926	59.54
736.109	59.57
736.291	59.62
736.473	59.71
736.655	59.72
736.838	59.83
737.02	59.86
737.202	59.92
737.384	59.88
737.566	59.94
737.748	60.06
737.93	60
738.113	60.03
738.295	60.02
738.477	60.04
738.659	60.07
738.841	59.98
739.023	60.03
739.205	60.03
739.387	60.08
739.569	60.04
739.751	60
739.933	60.09
740.114	60.11
740.296	60.28
740.478	60.37
740.66	60.37
740.842	60.42
741.024	60.5
741.206	60.58
741.387	60.6
741.569	60.67
741.751	60.72
741.933	60.7
742.115	60.73
742.296	60.66
742.478	60.56
742.66	60.59
742.841	60.64
743.023	60.58
743.205	60.5
743.386	60.47
743.568	60.44
743.75	60.53
743.931	60.54
744.113	60.41
744.294	60.51
744.476	60.57
744.657	60.64
744.839	60.65
745.02	60.62
745.202	60.67
745.383	60.79
745.565	60.81
745.746	60.75
745.928	60.88
746.109	61.1
746.291	61.06
746.472	61.1
746.653	61.01
746.835	60.95
747.016	61.1
747.197	61.11
747.379	61.07
747.56	61.17
747.741	61.06
747.922	60.91
748.104	61
748.285	61
748.466	60.98
748.647	61.07
748.828	61.18
749.01	61.17
749.191	61.2
749.372	61.24
749.553	61.3
749.734	61.32
749.915	61.49
750.096	61.35
750.277	61.32
750.458	61.4
750.639	61.41
750.82	61.43
751.001	61.45
751.182	61.39
751.363	61.49
751.544	61.49
751.725	61.6
751.906	61.48
752.087	61.57
752.268	61.64
752.449	61.64
752.63	61.59
752.81	61.65
752.991	61.71
753.172	61.86
753.353	61.81
753.534	61.74
753.714	61.82
753.895	61.82
754.076	61.77
754.256	61.77
754.437	61.68
754.618	61.77
754.798	61.72
754.979	61.72
755.16	61.67
755.34	61.75
755.521	61.86
755.702	61.81
755.882	62.01
756.063	62.15
756.243	62.12
756.424	62.23
756.604	62.17
756.785	62.15
756.965	62.12
757.146	62.16
757.326	62.08
757.507	62.03
757.687	62.15
757.867	62.13
758.048	62.11
758.228	62.06
758.408	62.08
758.589	62.25
758.769	62.33
758.949	62.3
759.13	62.44
759.31	62.5
759.49	62.5
759.671	62.56
759.851	62.61
760.031	62.63
760.211	62.7
760.391	62.82
760.572	62.77
760.752	62.79
760.932	62.93
761.112	62.81
761.292	62.86
761.472	62.94
761.652	62.78
761.832	62.72
762.012	62.68
762.192	62.67
762.372	62.55
762.552	62.44
762.732	62.41
762.912	62.37
763.092	62.35
763.272	62.22
763.452	62.26
763.632	62.41
763.812	62.47
763.992	62.48
764.172	62.54
764.351	62.57
764.531	62.66
764.711	62.62
764.891	62.69
765.071	62.76
765.25	62.99
765.43	62.98
765.61	62.87
765.79	62.9
765.969	62.93
766.149	62.95
766.329	63.02
766.508	63.02
766.688	63.14
766.867	63.1
767.047	63.23
767.227	63.06
767.406	63.13
767.586	63.19
767.765	63.17
767.945	63.29
768.124	63.39
768.304	63.36
768.483	63.34
768.663	63.28
768.842	63.31
769.022	63.19
769.201	63.36
769.38	63.35
769.56	63.4
769.739	63.36
769.919	63.2
770.098	63.19
770.277	63.06
770.457	63.14
770.636	63.29
770.815	63.21
770.994	63.24
771.174	63.01
771.353	63.09
771.532	63.05
771.711	63.18
771.89	63.28
772.07	63.21
772.249	63.38
772.428	63.43
772.607	63.32
772.786	63.4
772.965	63.36
773.144	63.53
773.323	63.34
773.502	63.36
773.681	63.44
773.86	63.41
774.039	63.52
774.218	63.47
774.397	63.34
774.576	63.49
774.755	63.52
774.934	63.66
775.113	63.79
775.292	63.99
775.471	64.03
775.65	63.97
775.828	63.94
776.007	63.79
776.186	63.86
776.365	64.09
776.544	63.93
776.722	63.96
776.901	63.88
777.08	63.8
777.258	63.76
777.437	63.93
777.616	64.05
777.795	64.17
777.973	64.21
778.152	64.17
778.33	64.1
778.509	64.31
778.688	64.26
778.866	64.27
779.045	64.17
779.223	64.22
779.402	64.22
779.58	64.09
779.759	64.13
779.937	64.34
780.116	64.4
780.294	64.43
780.473	64.37
780.651	64.41
780.829	64.43
781.008	64.51
781.186	64.5
781.364	64.43
781.543	64.38
781.721	64.47
781.899	64.48
782.078	64.53
782.256	64.68
782.434	64.69
782.612	64.82
782.791	64.9
782.969	64.84
783.147	64.82
783.325	64.97
783.503	65.21
783.681	65.03
783.86	65.02
784.038	65.05
784.216	64.93
784.394	64.8
784.572	64.88
784.75	64.93
784.928	65.23
785.106	65.27
785.284	65.04
785.462	64.96
785.64	64.97
785.818	64.97
785.996	65.02
786.174	65.01
786.352	65.12
786.53	65.02
786.707	64.98
786.885	64.78
787.063	64.86
787.241	65.13
787.419	64.9
787.597	65.08
787.774	65.02
787.952	65.08
788.13	65.08
788.308	65.06
788.485	64.87
788.663	64.8
788.841	64.86
789.018	64.89
789.196	64.88
789.374	65.08
789.551	64.99
789.729	65.06
789.906	64.99
790.084	65.1
790.262	65.03
790.439	65.27
790.617	65.32
790.794	65.22
790.972	65.1
791.149	64.95
791.327	64.97
791.504	65
791.681	64.9
791.859	64.92
792.036	64.89
792.214	65.14
792.391	65.11
792.568	65.18
792.746	65.41
792.923	65.56
793.1	65.67
793.278	65.63
793.455	65.85
793.632	66.03
793.809	65.95
793.987	65.96
794.164	66.01
794.341	65.99
794.518	66.16
794.695	66.06
794.872	66.1
795.05	66.11
795.227	66.29
795.404	66.1
795.581	66.04
795.758	66.08
795.935	65.99
796.112	65.84
796.289	65.86
796.466	65.67
796.643	65.72
796.82	65.7
796.997	65.78
797.174	65.66
797.351	65.64
797.528	65.71
797.704	65.92
797.881	65.99
798.058	66.19
798.235	66.25
798.412	66.24
798.589	66.22
798.765	66.11
798.942	66.02
799.119	66.03
799.296	66.04
799.472	66.08
799.649	65.98
799.826	66.1
800.003	65.94
800.179	65.92
800.356	65.92
800.533	65.98
800.709	66.22
800.886	66.25
801.062	66.35
801.239	66.42
801.415	66.35
801.592	66.34
801.769	66.2
801.945	66.24
802.122	66.23
802.298	66.26
802.474	66.44
802.651	66.31
802.827	66.43
803.004	66.52
803.18	66.78
803.356	66.83
803.533	66.93
803.709	67.23
803.886	67.23
804.062	67.36
804.238	67.54
804.414	67.32
804.591	67.18
804.767	67.03
804.943	66.79
805.119	66.53
805.296	66.55
805.472	66.51
805.648	66.55
805.824	66.55
806	66.43
806.176	66.35
806.352	66.34
806.529	66.58
806.705	66.59
806.881	66.67
807.057	66.73
807.233	66.72
807.409	66.64
807.585	66.42
807.761	66.35
807.937	66.56
808.113	66.67
808.289	66.9
808.464	66.95
808.64	66.97
808.816	67.05
808.992	67.22
809.168	67.07
809.344	67.06
809.52	67.08
809.695	67.19
809.871	67.01
810.047	66.99
810.223	66.83
810.398	66.78
810.574	66.95
810.75	66.97
810.926	66.92
811.101	66.97
811.277	67.01
811.453	67.18
811.628	67.31
811.804	67.53
811.979	67.34
812.155	67.39
812.331	67.29
812.506	67.36
812.682	67.44
812.857	67.38
813.033	67.42
813.208	67.56
813.384	67.57
813.559	67.47
813.734	67.56
813.91	67.86
814.085	67.95
814.261	68.36
814.436	68.08
814.611	68.15
814.787	68.21
814.962	68.29
815.137	68.24
815.313	68.18
815.488	68.24
815.663	68.02
815.838	67.97
816.014	67.87
816.189	67.71
816.364	67.88
816.539	67.81
816.714	67.92
816.89	68.04
817.065	68.17
817.24	68.24
817.415	68.31
817.59	68.43
817.765	68.32
817.94	68.44
818.115	68.55
818.29	68.76
818.465	68.86
818.64	68.88
818.815	68.63
818.99	68.28
819.165	68.13
819.34	68.09
819.515	67.96
819.69	67.87
819.865	67.62
820.039	67.48
820.214	67.28
820.389	67.24
820.564	67.08
820.739	67.12
820.913	67.36
821.088	67.24
821.263	67.2
821.438	66.98
821.612	66.9
821.787	66.96
821.962	66.79
822.136	66.59
822.311	66.41
822.486	66.37
822.66	66.35
822.835	66.32
823.009	66.38
823.184	66.42
823.359	66.54
823.533	66.63
823.708	66.66
823.882	66.76
824.057	66.9
824.231	67.04
824.405	67.2
824.58	67.37
824.754	67.52
824.929	67.65
825.103	67.78
825.277	67.83
825.452	67.87
825.626	67.93
825.801	67.93
825.975	68.02
826.149	68.07
826.323	68.07
826.498	67.93
826.672	67.93
826.846	67.81
827.02	67.54
827.195	67.49
827.369	67.45
827.543	67.42
827.717	67.42
827.891	67.46
828.065	67.46
828.239	67.54
828.413	67.62
828.587	67.6
828.762	67.73
828.936	67.96
829.11	68.11
829.284	68.28
829.458	68.48
829.632	68.76
829.805	68.81
829.979	68.98
830.153	69.07
830.327	69.22
830.501	69.26
830.675	69.38
830.849	69.41
831.023	69.27
831.196	69.3
831.37	69.2
831.544	69.02
831.718	68.93
831.892	68.85
832.065	68.71
832.239	68.63
832.413	68.76
832.586	68.43
832.76	68.48
832.934	68.5
833.107	68.25
833.281	68.13
833.455	67.91
833.628	67.73
833.802	67.66
833.975	67.57
834.149	67.57
834.322	67.57
834.496	67.66
834.67	67.67
834.843	67.68
835.016	67.81
835.19	67.88
835.363	68.09
835.537	68.17
835.71	68.26
835.884	68.4
836.057	68.52
836.23	68.69
836.404	68.86
836.577	68.98
836.75	69.13
836.923	69.27
837.097	69.45
837.27	69.44
837.443	69.77
837.616	69.9
837.79	69.99
837.963	70.08
838.136	70.01
838.309	70.09
838.482	70.07
838.655	70.21
838.829	70.09
839.002	70.41
839.175	70.35
839.348	70.34
839.521	70.61
839.694	70.75
839.867	70.59
840.04	70.56
840.213	70.26
840.386	70.43
840.559	70.35
840.732	70.22
840.905	70.18
841.077	70.15
841.25	70.02
841.423	70.14
841.596	69.9
841.769	69.99
841.942	70.16
842.114	70.4
842.287	70.37
842.46	70.25
842.633	70.56
842.806	70.49
842.978	70.57
843.151	70.85
843.324	70.45
843.496	70.9
843.669	71.01
843.842	71.28
844.014	71.21
844.187	71.49
844.359	71.63
844.532	71.46
844.704	71.47
844.877	71.5
845.05	71.59
845.222	72.07
845.395	71.85
845.567	71.83
845.739	71.56
845.912	71.61
846.084	71.59
846.257	71.73
846.429	72.02
846.601	71.62
846.774	71.85
846.946	71.77
847.119	71.85
847.291	71.86
847.463	71.94
847.635	71.86
847.808	72.01
847.98	72
848.152	72.18
848.324	72.45
848.497	72.79
848.669	72.65
848.841	72.83
849.013	72.9
849.185	72.62
849.357	72.79
849.529	72.49
849.701	72.73
849.873	72.74
850.046	72.49
850.218	72.31
850.39	72.39
850.562	72.52
850.734	72.26
850.906	71.41
851.077	71.74
851.249	72.21
851.421	73.01
851.593	73.06
851.765	72.98
851.937	73.27
852.109	73.25
852.281	73.07
852.452	73.15
852.624	72.97
852.796	74.11
852.968	74.4
853.14	74
853.311	73.7
853.483	73.59
853.655	73.55
853.826	73.5
853.998	73.31
854.17	73.34
854.341	73.07
854.513	73.73
854.685	73.52
854.856	73.11
855.028	73.84
855.199	73.74
855.371	73.44
855.542	73.79
855.714	74.23
855.885	74.52
856.057	74.75
856.228	74.9
856.4	74.18
856.571	73.98
856.743	74.18
856.914	73.46
857.085	73.16
857.257	73.78
857.428	73.73
857.599	73.34
857.771	73.26
857.942	72.62
858.113	72.7
858.284	73.16
858.456	73.17
858.627	72.87
858.798	73.34
858.969	74
859.141	73.49
859.312	73.73
859.483	74.04
859.654	73.96
859.825	74.68
859.996	74.53
860.167	74.46
860.338	74.29
860.509	74.75
860.68	74.88
860.851	74.52
861.022	74.69
861.193	74.48
861.364	73.87
861.535	74.63
861.706	74.94
861.877	75.63
862.048	75.53
862.219	75.89
862.39	75.47
862.561	75.44
862.731	75.79
862.902	75.78
863.073	75.18
863.244	75.15
863.415	74.61
863.585	74.23
863.756	73.79
863.927	73.59
864.097	73.65
864.268	73.73
864.439	73.14
864.609	73.7
864.78	73.45
864.951	73.36
865.121	73.89
865.292	73.93
865.463	74.06
865.633	74.6
865.804	75.07
865.974	74.64
866.145	74.68
866.315	75
866.486	73.99
866.656	73.83
866.826	74.52
866.997	74.27
867.167	74.3
867.338	74.53
867.508	73.68
867.678	73.62
867.849	74.42
868.019	74.88
868.189	74.83
868.36	75.83
868.53	77.27
868.7	77.74
868.87	78.4
869.041	78.93
869.211	78.97
869.381	80.08
869.551	80.21
869.721	79.84
869.891	79.5
870.062	79.48
870.232	78.91
870.402	77.57
870.572	76.79
870.742	76.7
870.912	76.04
871.082	76.01
871.252	76.09
871.422	75.73
871.592	76.06
871.762	75.47
871.932	75.24
872.102	75.58
872.272	75.9
872.442	76.27
872.611	75.56
872.781	75.54
872.951	74.68
873.121	73.44
873.291	73.8
873.461	74.05
873.63	74.77
873.8	75.36
873.97	75.19
874.14	75.99
874.309	75.64
874.479	75.9
874.649	76.47
874.818	77.28
874.988	77.39
875.158	77.36
875.327	76.74
875.497	76.95
875.666	77.02
875.836	77
876.005	76.52
876.175	77.12
876.344	77.33
876.514	76.68
876.683	76.75
876.853	77.16
877.022	76.82
877.192	76.47
877.361	76.37
877.531	75.91
877.7	76.15
877.869	76.31
878.039	76.37
878.208	76.46
878.377	76.66
878.547	77.03
878.716	77.12
878.885	76.79
879.054	76.89
879.224	76.66
879.393	76.83
879.562	76.52
879.731	75.83
879.9	75.44
880.069	75.28
880.239	75.17
880.408	74.46
880.577	74.17
880.746	74.38
880.915	74
881.084	73.75
881.253	72.93
881.422	72.12
881.591	72.03
881.76	71.62
881.929	71.45
882.098	71.1
882.267	70.83
882.436	70.83
882.605	70.92
882.773	70.92
882.942	70.92
883.111	71.02
883.28	71.29
883.449	71.36
883.618	71.56
883.786	71.69
883.955	71.82
884.124	72.06
884.293	72.15
884.461	72.2
884.63	72.4
884.799	72.56
884.967	72.78
885.136	72.77
885.305	72.96
885.473	73.11
885.642	73.15
885.81	73.56
885.979	73.61
886.148	73.83
886.316	74.14
886.485	74.11
886.653	74.34
886.822	74.66
886.99	75.22
887.158	75.19
887.327	75.19
887.495	75.52
887.664	75.36
887.832	75.69
888	75.69
888.169	75.58
888.337	76.15
888.505	76.22
888.674	76.07
888.842	75.77
889.01	75.98
889.178	75.85
889.347	75.65
889.515	75.71
889.683	75.78
889.851	76.22
